R.Time (min)	Intensity
0.00000	1
0.00833	1
0.01667	0
0.02500	0
0.03333	0
0.04167	1
0.05000	1
0.05833	0
0.06667	0
0.07500	-0
0.08333	-1
0.09167	-1
0.10000	-0
0.10833	-0
0.11667	0
0.12500	0
0.13333	0
0.14167	0
0.15000	1
0.15833	0
0.16667	0
0.17500	0
0.18333	0
0.19167	1
0.20000	1
0.20833	1
0.21667	1
0.22500	1
0.23333	1
0.24167	1
0.25000	1
0.25833	1
0.26667	1
0.27500	1
0.28333	1
0.29167	2
0.30000	1
0.30833	1
0.31667	1
0.32500	1
0.33333	1
0.34167	1
0.35000	1
0.35833	1
0.36667	2
0.37500	2
0.38333	2
0.39167	2
0.40000	2
0.40833	1
0.41667	1
0.42500	1
0.43333	1
0.44167	0
0.45000	0
0.45833	0
0.46667	0
0.47500	0
0.48333	1
0.49167	1
0.50000	1
0.50833	0
0.51667	0
0.52500	0
0.53333	0
0.54167	-0
0.55000	-0
0.55833	-0
0.56667	-1
0.57500	-1
0.58333	-1
0.59167	-1
0.60000	-1
0.60833	-2
0.61667	-2
0.62500	-2
0.63333	-2
0.64167	-2
0.65000	-1
0.65833	-1
0.66667	-1
0.67500	-1
0.68333	-1
0.69167	-1
0.70000	-1
0.70833	-1
0.71667	-1
0.72500	-1
0.73333	-1
0.74167	-1
0.75000	-1
0.75833	-2
0.76667	-2
0.77500	-2
0.78333	-3
0.79167	-3
0.80000	-3
0.80833	-3
0.81667	-3
0.82500	-2
0.83333	-2
0.84167	-2
0.85000	-2
0.85833	-1
0.86667	-1
0.87500	-1
0.88333	-1
0.89167	-1
0.90000	-1
0.90833	-1
0.91667	-1
0.92500	-1
0.93333	-1
0.94167	-0
0.95000	0
0.95833	-0
0.96667	-0
0.97500	-0
0.98333	0
0.99167	0
1.00000	0
1.00833	0
1.01667	-0
1.02500	-1
1.03333	-1
1.04167	-1
1.05000	-1
1.05833	-0
1.06667	0
1.07500	1
1.08333	1
1.09167	1
1.10000	0
1.10833	0
1.11667	0
1.12500	0
1.13333	0
1.14167	-0
1.15000	-0
1.15833	-1
1.16667	-1
1.17500	-1
1.18333	-1
1.19167	-1
1.20000	-1
1.20833	-1
1.21667	-1
1.22500	-1
1.23333	-1
1.24167	-1
1.25000	-1
1.25833	-2
1.26667	-2
1.27500	-1
1.28333	-1
1.29167	-2
1.30000	-2
1.30833	-2
1.31667	-2
1.32500	-2
1.33333	-2
1.34167	-2
1.35000	-2
1.35833	-3
1.36667	-3
1.37500	-3
1.38333	-3
1.39167	-3
1.40000	-3
1.40833	-3
1.41667	-3
1.42500	-3
1.43333	-3
1.44167	-3
1.45000	-3
1.45833	-3
1.46667	-3
1.47500	-3
1.48333	-3
1.49167	-3
1.50000	-3
1.50833	-3
1.51667	-3
1.52500	-3
1.53333	-3
1.54167	-3
1.55000	-2
1.55833	-2
1.56667	-2
1.57500	-2
1.58333	-3
1.59167	-3
1.60000	-3
1.60833	-3
1.61667	-3
1.62500	-3
1.63333	-2
1.64167	-2
1.65000	-2
1.65833	-2
1.66667	-2
1.67500	-2
1.68333	-2
1.69167	-2
1.70000	-2
1.70833	-2
1.71667	-2
1.72500	-2
1.73333	-2
1.74167	-2
1.75000	-2
1.75833	-3
1.76667	-3
1.77500	-3
1.78333	-4
1.79167	-3
1.80000	-3
1.80833	-3
1.81667	-3
1.82500	-3
1.83333	-3
1.84167	-3
1.85000	-3
1.85833	-4
1.86667	-4
1.87500	-3
1.88333	-3
1.89167	-3
1.90000	-3
1.90833	-3
1.91667	-3
1.92500	-4
1.93333	-4
1.94167	-4
1.95000	-4
1.95833	-4
1.96667	-5
1.97500	-5
1.98333	-5
1.99167	-5
2.00000	-5
2.00833	-5
2.01667	-6
2.02500	-6
2.03333	-6
2.04167	-6
2.05000	-6
2.05833	-6
2.06667	-6
2.07500	-6
2.08333	-7
2.09167	-7
2.10000	-8
2.10833	-8
2.11667	-8
2.12500	-8
2.13333	-8
2.14167	-8
2.15000	-9
2.15833	-9
2.16667	-9
2.17500	-9
2.18333	-9
2.19167	-9
2.20000	-9
2.20833	-9
2.21667	-9
2.22500	-10
2.23333	-10
2.24167	-10
2.25000	-10
2.25833	-10
2.26667	-10
2.27500	-10
2.28333	-9
2.29167	-9
2.30000	-9
2.30833	-9
2.31667	-9
2.32500	-9
2.33333	-9
2.34167	-9
2.35000	-9
2.35833	-9
2.36667	-9
2.37500	-9
2.38333	-9
2.39167	-10
2.40000	-10
2.40833	-10
2.41667	-10
2.42500	-10
2.43333	-9
2.44167	-9
2.45000	-9
2.45833	-9
2.46667	-9
2.47500	-9
2.48333	-9
2.49167	-9
2.50000	-8
2.50833	-8
2.51667	-8
2.52500	-9
2.53333	-8
2.54167	-8
2.55000	-8
2.55833	-8
2.56667	-8
2.57500	-8
2.58333	-8
2.59167	-8
2.60000	-8
2.60833	-8
2.61667	-8
2.62500	-7
2.63333	-8
2.64167	-8
2.65000	-8
2.65833	-8
2.66667	-8
2.67500	-8
2.68333	-8
2.69167	-8
2.70000	-8
2.70833	-8
2.71667	-8
2.72500	-8
2.73333	-8
2.74167	-9
2.75000	-9
2.75833	-9
2.76667	-9
2.77500	-9
2.78333	-9
2.79167	-9
2.80000	-10
2.80833	-10
2.81667	-10
2.82500	-10
2.83333	-10
2.84167	-10
2.85000	-10
2.85833	-10
2.86667	-10
2.87500	-10
2.88333	-10
2.89167	-11
2.90000	-11
2.90833	-11
2.91667	-11
2.92500	-11
2.93333	-11
2.94167	-11
2.95000	-11
2.95833	-11
2.96667	-11
2.97500	-11
2.98333	-11
2.99167	-10
3.00000	-10
3.00833	-10
3.01667	-10
3.02500	-10
3.03333	-10
3.04167	-10
3.05000	-11
3.05833	-11
3.06667	-11
3.07500	-11
3.08333	-11
3.09167	-11
3.10000	-11
3.10833	-11
3.11667	-11
3.12500	-11
3.13333	-11
3.14167	-11
3.15000	-11
3.15833	-11
3.16667	-11
3.17500	-10
3.18333	-11
3.19167	-11
3.20000	-11
3.20833	-11
3.21667	-11
3.22500	-10
3.23333	-10
3.24167	-9
3.25000	-9
3.25833	-9
3.26667	-8
3.27500	-8
3.28333	-8
3.29167	-8
3.30000	-8
3.30833	-9
3.31667	-9
3.32500	-9
3.33333	-8
3.34167	-8
3.35000	-8
3.35833	-8
3.36667	-8
3.37500	-8
3.38333	-8
3.39167	-7
3.40000	-7
3.40833	-8
3.41667	-8
3.42500	-8
3.43333	-8
3.44167	-8
3.45000	-8
3.45833	-8
3.46667	-8
3.47500	-7
3.48333	-7
3.49167	-7
3.50000	-6
3.50833	-6
3.51667	-6
3.52500	-6
3.53333	-6
3.54167	-6
3.55000	-6
3.55833	-6
3.56667	-6
3.57500	-6
3.58333	-6
3.59167	-6
3.60000	-5
3.60833	-5
3.61667	-5
3.62500	-5
3.63333	-5
3.64167	-4
3.65000	-4
3.65833	-4
3.66667	-4
3.67500	-4
3.68333	-4
3.69167	-4
3.70000	-4
3.70833	-4
3.71667	-4
3.72500	-3
3.73333	-3
3.74167	-3
3.75000	-2
3.75833	-2
3.76667	-2
3.77500	-2
3.78333	-3
3.79167	-2
3.80000	-2
3.80833	-2
3.81667	-2
3.82500	-1
3.83333	-1
3.84167	-1
3.85000	-1
3.85833	-1
3.86667	-1
3.87500	-1
3.88333	-0
3.89167	0
3.90000	1
3.90833	1
3.91667	1
3.92500	1
3.93333	1
3.94167	2
3.95000	2
3.95833	2
3.96667	2
3.97500	2
3.98333	1
3.99167	1
4.00000	1
4.00833	2
4.01667	2
4.02500	1
4.03333	1
4.04167	1
4.05000	1
4.05833	0
4.06667	1
4.07500	1
4.08333	1
4.09167	1
4.10000	1
4.10833	1
4.11667	1
4.12500	1
4.13333	2
4.14167	2
4.15000	2
4.15833	2
4.16667	2
4.17500	3
4.18333	3
4.19167	3
4.20000	3
4.20833	3
4.21667	3
4.22500	3
4.23333	3
4.24167	3
4.25000	3
4.25833	3
4.26667	4
4.27500	4
4.28333	4
4.29167	5
4.30000	5
4.30833	5
4.31667	6
4.32500	6
4.33333	7
4.34167	7
4.35000	7
4.35833	7
4.36667	7
4.37500	8
4.38333	8
4.39167	8
4.40000	8
4.40833	9
4.41667	9
4.42500	10
4.43333	10
4.44167	10
4.45000	10
4.45833	10
4.46667	11
4.47500	11
4.48333	11
4.49167	11
4.50000	11
4.50833	11
4.51667	12
4.52500	12
4.53333	12
4.54167	13
4.55000	13
4.55833	14
4.56667	14
4.57500	14
4.58333	14
4.59167	14
4.60000	14
4.60833	14
4.61667	13
4.62500	13
4.63333	13
4.64167	13
4.65000	12
4.65833	12
4.66667	12
4.67500	13
4.68333	13
4.69167	13
4.70000	13
4.70833	14
4.71667	14
4.72500	14
4.73333	14
4.74167	14
4.75000	14
4.75833	14
4.76667	14
4.77500	13
4.78333	13
4.79167	13
4.80000	13
4.80833	13
4.81667	14
4.82500	13
4.83333	13
4.84167	13
4.85000	13
4.85833	13
4.86667	14
4.87500	14
4.88333	15
4.89167	15
4.90000	16
4.90833	16
4.91667	17
4.92500	17
4.93333	17
4.94167	17
4.95000	17
4.95833	17
4.96667	18
4.97500	19
4.98333	19
4.99167	20
5.00000	20
5.00833	20
5.01667	20
5.02500	20
5.03333	20
5.04167	20
5.05000	21
5.05833	21
5.06667	21
5.07500	21
5.08333	21
5.09167	21
5.10000	22
5.10833	22
5.11667	22
5.12500	23
5.13333	23
5.14167	24
5.15000	24
5.15833	24
5.16667	25
5.17500	25
5.18333	25
5.19167	26
5.20000	26
5.20833	26
5.21667	26
5.22500	26
5.23333	26
5.24167	26
5.25000	26
5.25833	26
5.26667	26
5.27500	27
5.28333	27
5.29167	27
5.30000	27
5.30833	27
5.31667	27
5.32500	27
5.33333	27
5.34167	27
5.35000	27
5.35833	27
5.36667	27
5.37500	27
5.38333	28
5.39167	28
5.40000	29
5.40833	29
5.41667	30
5.42500	30
5.43333	30
5.44167	30
5.45000	30
5.45833	30
5.46667	30
5.47500	30
5.48333	29
5.49167	29
5.50000	29
5.50833	29
5.51667	29
5.52500	29
5.53333	29
5.54167	29
5.55000	29
5.55833	29
5.56667	29
5.57500	30
5.58333	30
5.59167	31
5.60000	31
5.60833	32
5.61667	32
5.62500	32
5.63333	32
5.64167	32
5.65000	32
5.65833	32
5.66667	32
5.67500	33
5.68333	33
5.69167	34
5.70000	34
5.70833	34
5.71667	34
5.72500	35
5.73333	36
5.74167	36
5.75000	36
5.75833	37
5.76667	37
5.77500	38
5.78333	38
5.79167	38
5.80000	38
5.80833	38
5.81667	39
5.82500	39
5.83333	40
5.84167	40
5.85000	40
5.85833	41
5.86667	41
5.87500	41
5.88333	41
5.89167	42
5.90000	43
5.90833	43
5.91667	44
5.92500	44
5.93333	45
5.94167	45
5.95000	45
5.95833	46
5.96667	46
5.97500	46
5.98333	47
5.99167	47
6.00000	47
6.00833	47
6.01667	48
6.02500	48
6.03333	49
6.04167	49
6.05000	49
6.05833	49
6.06667	49
6.07500	49
6.08333	49
6.09167	49
6.10000	49
6.10833	49
6.11667	50
6.12500	50
6.13333	50
6.14167	51
6.15000	51
6.15833	51
6.16667	52
6.17500	52
6.18333	52
6.19167	52
6.20000	52
6.20833	52
6.21667	52
6.22500	53
6.23333	53
6.24167	53
6.25000	53
6.25833	54
6.26667	54
6.27500	54
6.28333	55
6.29167	55
6.30000	55
6.30833	55
6.31667	56
6.32500	56
6.33333	56
6.34167	56
6.35000	56
6.35833	56
6.36667	56
6.37500	57
6.38333	57
6.39167	57
6.40000	57
6.40833	57
6.41667	57
6.42500	58
6.43333	58
6.44167	59
6.45000	60
6.45833	60
6.46667	61
6.47500	61
6.48333	62
6.49167	62
6.50000	62
6.50833	62
6.51667	62
6.52500	63
6.53333	63
6.54167	63
6.55000	63
6.55833	63
6.56667	63
6.57500	63
6.58333	64
6.59167	63
6.60000	63
6.60833	63
6.61667	63
6.62500	64
6.63333	64
6.64167	64
6.65000	64
6.65833	64
6.66667	64
6.67500	64
6.68333	64
6.69167	64
6.70000	64
6.70833	65
6.71667	65
6.72500	65
6.73333	65
6.74167	65
6.75000	65
6.75833	65
6.76667	65
6.77500	65
6.78333	66
6.79167	66
6.80000	66
6.80833	66
6.81667	66
6.82500	66
6.83333	66
6.84167	66
6.85000	66
6.85833	66
6.86667	67
6.87500	67
6.88333	67
6.89167	67
6.90000	68
6.90833	68
6.91667	68
6.92500	69
6.93333	69
6.94167	69
6.95000	70
6.95833	70
6.96667	71
6.97500	71
6.98333	72
6.99167	72
7.00000	73
7.00833	73
7.01667	75
7.02500	75
7.03333	76
7.04167	76
7.05000	76
7.05833	77
7.06667	77
7.07500	77
7.08333	77
7.09167	77
7.10000	78
7.10833	78
7.11667	78
7.12500	78
7.13333	78
7.14167	78
7.15000	78
7.15833	78
7.16667	78
7.17500	78
7.18333	78
7.19167	78
7.20000	78
7.20833	78
7.21667	79
7.22500	78
7.23333	78
7.24167	78
7.25000	78
7.25833	78
7.26667	78
7.27500	78
7.28333	78
7.29167	78
7.30000	78
7.30833	77
7.31667	76
7.32500	75
7.33333	74
7.34167	72
7.35000	68
7.35833	63
7.36667	55
7.37500	44
7.38333	28
7.39167	6
7.40000	-25
7.40833	-67
7.41667	-125
7.42500	-202
7.43333	-304
7.44167	-434
7.45000	-597
7.45833	-799
7.46667	-1041
7.47500	-1325
7.48333	-1652
7.49167	-2016
7.50000	-2413
7.50833	-2832
7.51667	-3263
7.52500	-3691
7.53333	-4103
7.54167	-4484
7.55000	-4821
7.55833	-5101
7.56667	-5317
7.57500	-5463
7.58333	-5536
7.59167	-5536
7.60000	-5468
7.60833	-5337
7.61667	-5151
7.62500	-4920
7.63333	-4654
7.64167	-4362
7.65000	-4053
7.65833	-3736
7.66667	-3419
7.67500	-3109
7.68333	-2810
7.69167	-2527
7.70000	-2262
7.70833	-2017
7.71667	-1793
7.72500	-1589
7.73333	-1406
7.74167	-1243
7.75000	-1097
7.75833	-968
7.76667	-855
7.77500	-754
7.78333	-666
7.79167	-589
7.80000	-521
7.80833	-461
7.81667	-408
7.82500	-361
7.83333	-319
7.84167	-281
7.85000	-248
7.85833	-218
7.86667	-191
7.87500	-167
7.88333	-145
7.89167	-125
7.90000	-106
7.90833	-89
7.91667	-74
7.92500	-60
7.93333	-47
7.94167	-36
7.95000	-25
7.95833	-15
7.96667	-6
7.97500	2
7.98333	9
7.99167	16
8.00000	23
8.00833	29
8.01667	35
8.02500	41
8.03333	46
8.04167	50
8.05000	55
8.05833	59
8.06667	63
8.07500	67
8.08333	71
8.09167	75
8.10000	79
8.10833	82
8.11667	85
8.12500	88
8.13333	91
8.14167	95
8.15000	98
8.15833	101
8.16667	103
8.17500	105
8.18333	107
8.19167	109
8.20000	110
8.20833	111
8.21667	112
8.22500	113
8.23333	113
8.24167	113
8.25000	113
8.25833	113
8.26667	113
8.27500	112
8.28333	112
8.29167	111
8.30000	110
8.30833	109
8.31667	109
8.32500	108
8.33333	107
8.34167	106
8.35000	105
8.35833	104
8.36667	104
8.37500	103
8.38333	102
8.39167	102
8.40000	101
8.40833	101
8.41667	100
8.42500	100
8.43333	99
8.44167	99
8.45000	99
8.45833	99
8.46667	98
8.47500	98
8.48333	97
8.49167	97
8.50000	96
8.50833	96
8.51667	96
8.52500	96
8.53333	96
8.54167	96
8.55000	96
8.55833	96
8.56667	95
8.57500	95
8.58333	95
8.59167	94
8.60000	94
8.60833	94
8.61667	94
8.62500	95
8.63333	96
8.64167	97
8.65000	98
8.65833	100
8.66667	101
8.67500	102
8.68333	104
8.69167	107
8.70000	110
8.70833	114
8.71667	119
8.72500	125
8.73333	131
8.74167	140
8.75000	150
8.75833	164
8.76667	180
8.77500	200
8.78333	225
8.79167	255
8.80000	292
8.80833	337
8.81667	392
8.82500	458
8.83333	537
8.84167	630
8.85000	740
8.85833	866
8.86667	1011
8.87500	1174
8.88333	1357
8.89167	1557
8.90000	1775
8.90833	2007
8.91667	2251
8.92500	2503
8.93333	2759
8.94167	3015
8.95000	3263
8.95833	3501
8.96667	3722
8.97500	3922
8.98333	4096
8.99167	4241
9.00000	4354
9.00833	4432
9.01667	4476
9.02500	4484
9.03333	4457
9.04167	4397
9.05000	4308
9.05833	4191
9.06667	4050
9.07500	3889
9.08333	3711
9.09167	3522
9.10000	3324
9.10833	3123
9.11667	2920
9.12500	2720
9.13333	2524
9.14167	2334
9.15000	2152
9.15833	1979
9.16667	1817
9.17500	1665
9.18333	1525
9.19167	1396
9.20000	1278
9.20833	1170
9.21667	1072
9.22500	984
9.23333	903
9.24167	831
9.25000	767
9.25833	709
9.26667	657
9.27500	610
9.28333	568
9.29167	530
9.30000	496
9.30833	465
9.31667	437
9.32500	411
9.33333	388
9.34167	367
9.35000	347
9.35833	329
9.36667	312
9.37500	296
9.38333	281
9.39167	268
9.40000	255
9.40833	243
9.41667	231
9.42500	221
9.43333	211
9.44167	202
9.45000	194
9.45833	186
9.46667	178
9.47500	172
9.48333	165
9.49167	160
9.50000	155
9.50833	150
9.51667	146
9.52500	142
9.53333	138
9.54167	134
9.55000	131
9.55833	129
9.56667	126
9.57500	123
9.58333	121
9.59167	120
9.60000	118
9.60833	117
9.61667	115
9.62500	114
9.63333	113
9.64167	112
9.65000	111
9.65833	109
9.66667	108
9.67500	107
9.68333	107
9.69167	106
9.70000	106
9.70833	106
9.71667	105
9.72500	104
9.73333	104
9.74167	103
9.75000	103
9.75833	102
9.76667	101
9.77500	101
9.78333	100
9.79167	100
9.80000	100
9.80833	100
9.81667	100
9.82500	101
9.83333	101
9.84167	101
9.85000	101
9.85833	100
9.86667	100
9.87500	100
9.88333	100
9.89167	99
9.90000	98
9.90833	98
9.91667	98
9.92500	98
9.93333	98
9.94167	98
9.95000	98
9.95833	98
9.96667	98
9.97500	98
9.98333	98
9.99167	98
10.00000	97
10.00833	97
10.01667	97
10.02500	97
10.03333	96
10.04167	96
10.05000	96
10.05833	96
10.06667	96
10.07500	96
10.08333	96
10.09167	96
10.10000	97
10.10833	97
10.11667	97
10.12500	96
10.13333	96
10.14167	96
10.15000	96
10.15833	96
10.16667	96
10.17500	97
10.18333	97
10.19167	97
10.20000	97
10.20833	98
10.21667	98
10.22500	97
10.23333	97
10.24167	97
10.25000	96
10.25833	96
10.26667	96
10.27500	95
10.28333	95
10.29167	95
10.30000	95
10.30833	95
10.31667	95
10.32500	94
10.33333	94
10.34167	94
10.35000	93
10.35833	93
10.36667	93
10.37500	92
10.38333	92
10.39167	92
10.40000	92
10.40833	92
10.41667	92
10.42500	92
10.43333	92
10.44167	92
10.45000	92
10.45833	92
10.46667	92
10.47500	92
10.48333	92
10.49167	92
10.50000	92
10.50833	93
10.51667	93
10.52500	93
10.53333	94
10.54167	94
10.55000	94
10.55833	94
10.56667	94
10.57500	94
10.58333	95
10.59167	95
10.60000	96
10.60833	97
10.61667	97
10.62500	98
10.63333	98
10.64167	99
10.65000	101
10.65833	102
10.66667	104
10.67500	107
10.68333	109
10.69167	112
10.70000	116
10.70833	120
10.71667	125
10.72500	130
10.73333	137
10.74167	144
10.75000	153
10.75833	163
10.76667	174
10.77500	187
10.78333	203
10.79167	222
10.80000	243
10.80833	268
10.81667	297
10.82500	331
10.83333	371
10.84167	418
10.85000	474
10.85833	539
10.86667	615
10.87500	703
10.88333	805
10.89167	922
10.90000	1055
10.90833	1203
10.91667	1369
10.92500	1551
10.93333	1749
10.94167	1963
10.95000	2189
10.95833	2427
10.96667	2672
10.97500	2922
10.98333	3173
10.99167	3420
11.00000	3659
11.00833	3885
11.01667	4093
11.02500	4280
11.03333	4441
11.04167	4574
11.05000	4675
11.05833	4743
11.06667	4778
11.07500	4779
11.08333	4747
11.09167	4683
11.10000	4590
11.10833	4470
11.11667	4326
11.12500	4162
11.13333	3982
11.14167	3789
11.15000	3587
11.15833	3380
11.16667	3170
11.17500	2961
11.18333	2756
11.19167	2556
11.20000	2363
11.20833	2179
11.21667	2005
11.22500	1842
11.23333	1689
11.24167	1548
11.25000	1417
11.25833	1298
11.26667	1188
11.27500	1089
11.28333	998
11.29167	917
11.30000	842
11.30833	775
11.31667	715
11.32500	660
11.33333	611
11.34167	567
11.35000	526
11.35833	490
11.36667	457
11.37500	427
11.38333	400
11.39167	374
11.40000	351
11.40833	330
11.41667	311
11.42500	293
11.43333	277
11.44167	261
11.45000	247
11.45833	234
11.46667	222
11.47500	211
11.48333	200
11.49167	191
11.50000	181
11.50833	173
11.51667	165
11.52500	158
11.53333	151
11.54167	145
11.55000	139
11.55833	133
11.56667	129
11.57500	124
11.58333	120
11.59167	117
11.60000	113
11.60833	110
11.61667	108
11.62500	105
11.63333	103
11.64167	101
11.65000	100
11.65833	98
11.66667	97
11.67500	96
11.68333	94
11.69167	93
11.70000	91
11.70833	90
11.71667	89
11.72500	88
11.73333	88
11.74167	87
11.75000	87
11.75833	86
11.76667	86
11.77500	86
11.78333	86
11.79167	86
11.80000	86
11.80833	86
11.81667	86
11.82500	86
11.83333	86
11.84167	86
11.85000	86
11.85833	87
11.86667	87
11.87500	87
11.88333	87
11.89167	87
11.90000	87
11.90833	88
11.91667	87
11.92500	87
11.93333	87
11.94167	88
11.95000	88
11.95833	87
11.96667	87
11.97500	86
11.98333	85
11.99167	85
12.00000	84
12.00833	83
12.01667	83
12.02500	82
12.03333	82
12.04167	81
12.05000	80
12.05833	79
12.06667	78
12.07500	77
12.08333	77
12.09167	76
12.10000	76
12.10833	75
12.11667	74
12.12500	73
12.13333	72
12.14167	71
12.15000	70
12.15833	70
12.16667	69
12.17500	69
12.18333	68
12.19167	68
12.20000	67
12.20833	67
12.21667	66
12.22500	65
12.23333	65
12.24167	64
12.25000	64
12.25833	64
12.26667	64
12.27500	63
12.28333	63
12.29167	62
12.30000	62
12.30833	62
12.31667	62
12.32500	61
12.33333	61
12.34167	61
12.35000	60
12.35833	60
12.36667	60
12.37500	60
12.38333	60
12.39167	60
12.40000	60
12.40833	59
12.41667	59
12.42500	59
12.43333	59
12.44167	59
12.45000	59
12.45833	59
12.46667	59
12.47500	59
12.48333	59
12.49167	59
12.50000	59
12.50833	59
12.51667	59
12.52500	58
12.53333	58
12.54167	58
12.55000	58
12.55833	58
12.56667	58
12.57500	57
12.58333	57
12.59167	56
12.60000	56
12.60833	56
12.61667	55
12.62500	55
12.63333	55
12.64167	56
12.65000	55
12.65833	55
12.66667	55
12.67500	55
12.68333	55
12.69167	54
12.70000	54
12.70833	53
12.71667	53
12.72500	53
12.73333	52
12.74167	52
12.75000	52
12.75833	52
12.76667	52
12.77500	52
12.78333	52
12.79167	52
12.80000	51
12.80833	51
12.81667	51
12.82500	51
12.83333	51
12.84167	50
12.85000	50
12.85833	50
12.86667	50
12.87500	50
12.88333	49
12.89167	49
12.90000	49
12.90833	48
12.91667	48
12.92500	48
12.93333	48
12.94167	48
12.95000	48
12.95833	48
12.96667	48
12.97500	49
12.98333	49
12.99167	49
13.00000	49
13.00833	49
13.01667	48
13.02500	48
13.03333	47
13.04167	47
13.05000	47
13.05833	46
13.06667	46
13.07500	46
13.08333	46
13.09167	46
13.10000	45
13.10833	46
13.11667	45
13.12500	45
13.13333	45
13.14167	45
13.15000	44
13.15833	44
13.16667	44
13.17500	44
13.18333	44
13.19167	44
13.20000	44
13.20833	43
13.21667	43
13.22500	43
13.23333	42
13.24167	42
13.25000	42
13.25833	42
13.26667	42
13.27500	41
13.28333	41
13.29167	41
13.30000	41
13.30833	40
13.31667	40
13.32500	39
13.33333	39
13.34167	39
13.35000	39
13.35833	39
13.36667	38
13.37500	38
13.38333	38
13.39167	38
13.40000	38
13.40833	37
13.41667	37
13.42500	37
13.43333	37
13.44167	37
13.45000	37
13.45833	37
13.46667	36
13.47500	36
13.48333	36
13.49167	37
13.50000	37
13.50833	37
13.51667	37
13.52500	37
13.53333	38
13.54167	38
13.55000	38
13.55833	39
13.56667	40
13.57500	41
13.58333	42
13.59167	44
13.60000	45
13.60833	46
13.61667	47
13.62500	48
13.63333	49
13.64167	50
13.65000	51
13.65833	52
13.66667	53
13.67500	54
13.68333	55
13.69167	55
13.70000	56
13.70833	56
13.71667	57
13.72500	57
13.73333	57
13.74167	57
13.75000	57
13.75833	57
13.76667	56
13.77500	56
13.78333	55
13.79167	54
13.80000	54
13.80833	53
13.81667	52
13.82500	51
13.83333	49
13.84167	48
13.85000	47
13.85833	46
13.86667	45
13.87500	43
13.88333	42
13.89167	41
13.90000	40
13.90833	40
13.91667	39
13.92500	38
13.93333	37
13.94167	36
13.95000	36
13.95833	35
13.96667	34
13.97500	33
13.98333	32
13.99167	32
14.00000	32
14.00833	31
14.01667	30
14.02500	30
14.03333	29
14.04167	29
14.05000	30
14.05833	30
14.06667	29
14.07500	29
14.08333	29
14.09167	29
14.10000	29
14.10833	28
14.11667	28
14.12500	28
14.13333	27
14.14167	28
14.15000	28
14.15833	28
14.16667	28
14.17500	28
14.18333	28
14.19167	28
14.20000	28
14.20833	28
14.21667	28
14.22500	28
14.23333	28
14.24167	28
14.25000	28
14.25833	28
14.26667	28
14.27500	28
14.28333	28
14.29167	28
14.30000	29
14.30833	29
14.31667	29
14.32500	29
14.33333	30
14.34167	30
14.35000	30
14.35833	30
14.36667	31
14.37500	31
14.38333	32
14.39167	32
14.40000	32
14.40833	32
14.41667	32
14.42500	32
14.43333	32
14.44167	32
14.45000	32
14.45833	33
14.46667	33
14.47500	34
14.48333	35
14.49167	35
14.50000	36
14.50833	37
14.51667	38
14.52500	38
14.53333	39
14.54167	39
14.55000	40
14.55833	41
14.56667	41
14.57500	42
14.58333	43
14.59167	44
14.60000	45
14.60833	45
14.61667	46
14.62500	47
14.63333	49
14.64167	53
14.65000	55
14.65833	56
14.66667	56
14.67500	57
14.68333	57
14.69167	58
14.70000	59
14.70833	60
14.71667	62
14.72500	63
14.73333	65
14.74167	66
14.75000	68
14.75833	69
14.76667	71
14.77500	73
14.78333	74
14.79167	75
14.80000	77
14.80833	79
14.81667	81
14.82500	83
14.83333	86
14.84167	88
14.85000	90
14.85833	92
14.86667	95
14.87500	98
14.88333	100
14.89167	104
14.90000	107
14.90833	110
14.91667	113
14.92500	116
14.93333	119
14.94167	123
14.95000	127
14.95833	130
14.96667	135
14.97500	140
14.98333	145
14.99167	150
15.00000	155
15.00833	160
15.01667	166
15.02500	173
15.03333	180
15.04167	187
15.05000	195
15.05833	203
15.06667	212
15.07500	222
15.08333	231
15.09167	242
15.10000	253
15.10833	264
15.11667	277
15.12500	290
15.13333	304
15.14167	319
15.15000	336
15.15833	354
15.16667	373
15.17500	394
15.18333	417
15.19167	442
15.20000	469
15.20833	498
15.21667	530
15.22500	565
15.23333	602
15.24167	643
15.25000	687
15.25833	735
15.26667	787
15.27500	843
15.28333	903
15.29167	967
15.30000	1034
15.30833	1106
15.31667	1181
15.32500	1259
15.33333	1341
15.34167	1424
15.35000	1509
15.35833	1594
15.36667	1680
15.37500	1765
15.38333	1847
15.39167	1927
15.40000	2003
15.40833	2075
15.41667	2141
15.42500	2200
15.43333	2253
15.44167	2297
15.45000	2333
15.45833	2361
15.46667	2379
15.47500	2388
15.48333	2388
15.49167	2379
15.50000	2362
15.50833	2338
15.51667	2306
15.52500	2268
15.53333	2224
15.54167	2175
15.55000	2123
15.55833	2067
15.56667	2009
15.57500	1948
15.58333	1887
15.59167	1825
15.60000	1763
15.60833	1703
15.61667	1644
15.62500	1586
15.63333	1530
15.64167	1477
15.65000	1426
15.65833	1378
15.66667	1332
15.67500	1288
15.68333	1247
15.69167	1208
15.70000	1171
15.70833	1137
15.71667	1105
15.72500	1075
15.73333	1046
15.74167	1019
15.75000	993
15.75833	969
15.76667	946
15.77500	923
15.78333	902
15.79167	882
15.80000	862
15.80833	843
15.81667	824
15.82500	806
15.83333	788
15.84167	771
15.85000	754
15.85833	736
15.86667	719
15.87500	702
15.88333	685
15.89167	669
15.90000	653
15.90833	637
15.91667	622
15.92500	606
15.93333	591
15.94167	576
15.95000	561
15.95833	546
15.96667	531
15.97500	516
15.98333	502
15.99167	487
16.00000	473
16.00833	459
16.01667	445
16.02500	432
16.03333	418
16.04167	404
16.05000	391
16.05833	378
16.06667	366
16.07500	353
16.08333	341
16.09167	329
16.10000	318
16.10833	307
16.11667	296
16.12500	285
16.13333	274
16.14167	264
16.15000	253
16.15833	243
16.16667	234
16.17500	225
16.18333	216
16.19167	207
16.20000	198
16.20833	190
16.21667	182
16.22500	174
16.23333	166
16.24167	159
16.25000	152
16.25833	145
16.26667	138
16.27500	131
16.28333	125
16.29167	119
16.30000	113
16.30833	108
16.31667	103
16.32500	98
16.33333	93
16.34167	89
16.35000	85
16.35833	81
16.36667	77
16.37500	73
16.38333	70
16.39167	66
16.40000	63
16.40833	60
16.41667	58
16.42500	55
16.43333	52
16.44167	49
16.45000	46
16.45833	43
16.46667	41
16.47500	39
16.48333	38
16.49167	36
16.50000	34
16.50833	33
16.51667	31
16.52500	29
16.53333	28
16.54167	27
16.55000	25
16.55833	23
16.56667	22
16.57500	21
16.58333	20
16.59167	19
16.60000	18
16.60833	18
16.61667	17
16.62500	15
16.63333	14
16.64167	13
16.65000	12
16.65833	12
16.66667	11
16.67500	10
16.68333	9
16.69167	8
16.70000	8
16.70833	7
16.71667	6
16.72500	6
16.73333	5
16.74167	5
16.75000	5
16.75833	4
16.76667	4
16.77500	3
16.78333	3
16.79167	2
16.80000	2
16.80833	1
16.81667	0
16.82500	-0
16.83333	-0
16.84167	-1
16.85000	-1
16.85833	-1
16.86667	-2
16.87500	-2
16.88333	-2
16.89167	-2
16.90000	-2
16.90833	-3
16.91667	-3
16.92500	-3
16.93333	-3
16.94167	-4
16.95000	-4
16.95833	-4
16.96667	-4
16.97500	-4
16.98333	-4
16.99167	-4
17.00000	-4
17.00833	-4
17.01667	-4
17.02500	-4
17.03333	-4
17.04167	-4
17.05000	-4
17.05833	-4
17.06667	-4
17.07500	-4
17.08333	-4
17.09167	-4
17.10000	-4
17.10833	-4
17.11667	-4
17.12500	-4
17.13333	-4
17.14167	-4
17.15000	-4
17.15833	-4
17.16667	-4
17.17500	-4
17.18333	-4
17.19167	-4
17.20000	-4
17.20833	-4
17.21667	-4
17.22500	-4
17.23333	-4
17.24167	-4
17.25000	-5
17.25833	-5
17.26667	-5
17.27500	-5
17.28333	-5
17.29167	-5
17.30000	-6
17.30833	-6
17.31667	-6
17.32500	-7
17.33333	-8
17.34167	-8
17.35000	-8
17.35833	-8
17.36667	-8
17.37500	-9
17.38333	-9
17.39167	-10
17.40000	-10
17.40833	-10
17.41667	-10
17.42500	-10
17.43333	-11
17.44167	-11
17.45000	-11
17.45833	-12
17.46667	-12
17.47500	-12
17.48333	-12
17.49167	-12
17.50000	-12
17.50833	-12
17.51667	-12
17.52500	-12
17.53333	-13
17.54167	-13
17.55000	-13
17.55833	-13
17.56667	-13
17.57500	-13
17.58333	-13
17.59167	-13
17.60000	-13
17.60833	-13
17.61667	-13
17.62500	-13
17.63333	-13
17.64167	-13
17.65000	-13
17.65833	-14
17.66667	-14
17.67500	-13
17.68333	-13
17.69167	-13
17.70000	-12
17.70833	-12
17.71667	-12
17.72500	-11
17.73333	-11
17.74167	-11
17.75000	-10
17.75833	-10
17.76667	-9
17.77500	-8
17.78333	-6
17.79167	-4
17.80000	-3
17.80833	-1
17.81667	1
17.82500	3
17.83333	5
17.84167	7
17.85000	9
17.85833	12
17.86667	15
17.87500	18
17.88333	22
17.89167	26
17.90000	30
17.90833	35
17.91667	41
17.92500	47
17.93333	54
17.94167	62
17.95000	71
17.95833	80
17.96667	89
17.97500	100
17.98333	112
17.99167	125
18.00000	139
18.00833	155
18.01667	172
18.02500	191
18.03333	211
18.04167	233
18.05000	257
18.05833	282
18.06667	309
18.07500	337
18.08333	366
18.09167	396
18.10000	428
18.10833	461
18.11667	496
18.12500	531
18.13333	566
18.14167	601
18.15000	636
18.15833	671
18.16667	704
18.17500	737
18.18333	769
18.19167	799
18.20000	826
18.20833	852
18.21667	874
18.22500	894
18.23333	910
18.24167	922
18.25000	931
18.25833	936
18.26667	938
18.27500	936
18.28333	930
18.29167	921
18.30000	908
18.30833	891
18.31667	872
18.32500	850
18.33333	826
18.34167	799
18.35000	770
18.35833	740
18.36667	708
18.37500	676
18.38333	643
18.39167	610
18.40000	576
18.40833	542
18.41667	509
18.42500	476
18.43333	444
18.44167	414
18.45000	385
18.45833	357
18.46667	330
18.47500	304
18.48333	279
18.49167	255
18.50000	233
18.50833	213
18.51667	193
18.52500	176
18.53333	159
18.54167	143
18.55000	129
18.55833	116
18.56667	104
18.57500	92
18.58333	82
18.59167	72
18.60000	63
18.60833	55
18.61667	48
18.62500	41
18.63333	35
18.64167	29
18.65000	24
18.65833	19
18.66667	14
18.67500	10
18.68333	7
18.69167	3
18.70000	0
18.70833	-3
18.71667	-6
18.72500	-8
18.73333	-11
18.74167	-13
18.75000	-15
18.75833	-16
18.76667	-18
18.77500	-19
18.78333	-20
18.79167	-21
18.80000	-22
18.80833	-22
18.81667	-23
18.82500	-23
18.83333	-24
18.84167	-25
18.85000	-26
18.85833	-26
18.86667	-27
18.87500	-28
18.88333	-29
18.89167	-30
18.90000	-30
18.90833	-31
18.91667	-32
18.92500	-32
18.93333	-32
18.94167	-32
18.95000	-33
18.95833	-33
18.96667	-33
18.97500	-33
18.98333	-32
18.99167	-32
19.00000	-32
19.00833	-33
19.01667	-33
19.02500	-33
19.03333	-34
19.04167	-34
19.05000	-33
19.05833	-33
19.06667	-33
19.07500	-33
19.08333	-33
19.09167	-33
19.10000	-33
19.10833	-33
19.11667	-33
19.12500	-34
19.13333	-34
19.14167	-34
19.15000	-35
19.15833	-35
19.16667	-35
19.17500	-35
19.18333	-36
19.19167	-36
19.20000	-36
19.20833	-35
19.21667	-35
19.22500	-34
19.23333	-34
19.24167	-34
19.25000	-34
19.25833	-34
19.26667	-34
19.27500	-34
19.28333	-34
19.29167	-34
19.30000	-34
19.30833	-34
19.31667	-34
19.32500	-34
19.33333	-34
19.34167	-34
19.35000	-34
19.35833	-34
19.36667	-35
19.37500	-35
19.38333	-35
19.39167	-35
19.40000	-35
19.40833	-35
19.41667	-34
19.42500	-34
19.43333	-34
19.44167	-34
19.45000	-34
19.45833	-34
19.46667	-34
19.47500	-34
19.48333	-33
19.49167	-33
19.50000	-33
19.50833	-33
19.51667	-32
19.52500	-32
19.53333	-32
19.54167	-33
19.55000	-33
19.55833	-33
19.56667	-33
19.57500	-33
19.58333	-33
19.59167	-32
19.60000	-32
19.60833	-32
19.61667	-32
19.62500	-32
19.63333	-32
19.64167	-32
19.65000	-32
19.65833	-32
19.66667	-32
19.67500	-32
19.68333	-32
19.69167	-32
19.70000	-32
19.70833	-32
19.71667	-33
19.72500	-33
19.73333	-33
19.74167	-32
19.75000	-32
19.75833	-32
19.76667	-31
19.77500	-31
19.78333	-31
19.79167	-31
19.80000	-31
19.80833	-31
19.81667	-30
19.82500	-30
19.83333	-30
19.84167	-30
19.85000	-30
19.85833	-30
19.86667	-30
19.87500	-31
19.88333	-31
19.89167	-31
19.90000	-31
19.90833	-31
19.91667	-31
19.92500	-31
19.93333	-30
19.94167	-30
19.95000	-30
19.95833	-31
19.96667	-31
19.97500	-31
19.98333	-31
19.99167	-31
20.00000	-30
20.00833	-30
20.01667	-30
20.02500	-30
20.03333	-30
20.04167	-30
20.05000	-30
20.05833	-30
20.06667	-31
20.07500	-31
20.08333	-32
20.09167	-33
20.10000	-33
20.10833	-33
20.11667	-33
20.12500	-33
20.13333	-33
20.14167	-33
20.15000	-32
20.15833	-32
20.16667	-32
20.17500	-32
20.18333	-32
20.19167	-32
20.20000	-32
20.20833	-32
20.21667	-32
20.22500	-32
20.23333	-32
20.24167	-33
20.25000	-33
20.25833	-33
20.26667	-33
20.27500	-33
20.28333	-33
20.29167	-33
20.30000	-33
20.30833	-34
20.31667	-34
20.32500	-34
20.33333	-34
20.34167	-33
20.35000	-33
20.35833	-33
20.36667	-33
20.37500	-33
20.38333	-32
20.39167	-32
20.40000	-32
20.40833	-32
20.41667	-31
20.42500	-31
20.43333	-31
20.44167	-31
20.45000	-31
20.45833	-32
20.46667	-31
20.47500	-31
20.48333	-31
20.49167	-30
20.50000	-30
20.50833	-30
20.51667	-30
20.52500	-30
20.53333	-30
20.54167	-30
20.55000	-30
20.55833	-30
20.56667	-29
20.57500	-29
20.58333	-29
20.59167	-29
20.60000	-29
20.60833	-29
20.61667	-29
20.62500	-29
20.63333	-29
20.64167	-29
20.65000	-29
20.65833	-29
20.66667	-29
20.67500	-29
20.68333	-29
20.69167	-29
20.70000	-29
20.70833	-28
20.71667	-28
20.72500	-28
20.73333	-28
20.74167	-28
20.75000	-28
20.75833	-28
20.76667	-28
20.77500	-28
20.78333	-28
20.79167	-28
20.80000	-28
20.80833	-28
20.81667	-28
20.82500	-29
20.83333	-29
20.84167	-28
20.85000	-28
20.85833	-29
20.86667	-29
20.87500	-29
20.88333	-29
20.89167	-29
20.90000	-29
20.90833	-29
20.91667	-29
20.92500	-29
20.93333	-29
20.94167	-29
20.95000	-29
20.95833	-30
20.96667	-30
20.97500	-31
20.98333	-31
20.99167	-31
21.00000	-31
21.00833	-31
21.01667	-31
21.02500	-31
21.03333	-31
21.04167	-31
21.05000	-31
21.05833	-31
21.06667	-31
21.07500	-31
21.08333	-31
21.09167	-31
21.10000	-32
21.10833	-32
21.11667	-32
21.12500	-32
21.13333	-32
21.14167	-32
21.15000	-32
21.15833	-32
21.16667	-32
21.17500	-32
21.18333	-32
21.19167	-32
21.20000	-33
21.20833	-33
21.21667	-33
21.22500	-34
21.23333	-34
21.24167	-34
21.25000	-34
21.25833	-34
21.26667	-34
21.27500	-34
21.28333	-34
21.29167	-34
21.30000	-34
21.30833	-34
21.31667	-34
21.32500	-34
21.33333	-34
21.34167	-34
21.35000	-35
21.35833	-35
21.36667	-36
21.37500	-37
21.38333	-37
21.39167	-37
21.40000	-38
21.40833	-38
21.41667	-38
21.42500	-39
21.43333	-39
21.44167	-38
21.45000	-38
21.45833	-38
21.46667	-38
21.47500	-38
21.48333	-38
21.49167	-37
21.50000	-38
21.50833	-38
21.51667	-39
21.52500	-39
21.53333	-40
21.54167	-40
21.55000	-40
21.55833	-40
21.56667	-40
21.57500	-40
21.58333	-41
21.59167	-41
21.60000	-42
21.60833	-42
21.61667	-42
21.62500	-42
21.63333	-43
21.64167	-43
21.65000	-43
21.65833	-44
21.66667	-44
21.67500	-44
21.68333	-44
21.69167	-44
21.70000	-45
21.70833	-45
21.71667	-45
21.72500	-46
21.73333	-46
21.74167	-46
21.75000	-46
21.75833	-47
21.76667	-47
21.77500	-47
21.78333	-47
21.79167	-47
21.80000	-47
21.80833	-47
21.81667	-47
21.82500	-47
21.83333	-47
21.84167	-47
21.85000	-47
21.85833	-47
21.86667	-48
21.87500	-48
21.88333	-48
21.89167	-48
21.90000	-48
21.90833	-47
21.91667	-47
21.92500	-47
21.93333	-47
21.94167	-47
21.95000	-47
21.95833	-47
21.96667	-47
21.97500	-47
21.98333	-47
21.99167	-47
22.00000	-47
22.00833	-47
22.01667	-47
22.02500	-47
22.03333	-47
22.04167	-47
22.05000	-47
22.05833	-47
22.06667	-47
22.07500	-47
22.08333	-47
22.09167	-47
22.10000	-47
22.10833	-47
22.11667	-47
22.12500	-47
22.13333	-47
22.14167	-47
22.15000	-47
22.15833	-47
22.16667	-47
22.17500	-48
22.18333	-48
22.19167	-48
22.20000	-49
22.20833	-49
22.21667	-49
22.22500	-49
22.23333	-50
22.24167	-50
22.25000	-51
22.25833	-52
22.26667	-53
22.27500	-53
22.28333	-54
22.29167	-55
22.30000	-56
22.30833	-57
22.31667	-58
22.32500	-59
22.33333	-61
22.34167	-62
22.35000	-63
22.35833	-64
22.36667	-65
22.37500	-67
22.38333	-69
22.39167	-71
22.40000	-73
22.40833	-75
22.41667	-76
22.42500	-78
22.43333	-80
22.44167	-82
22.45000	-85
22.45833	-88
22.46667	-91
22.47500	-94
22.48333	-97
22.49167	-99
22.50000	-102
22.50833	-105
22.51667	-109
22.52500	-112
22.53333	-115
22.54167	-119
22.55000	-122
22.55833	-125
22.56667	-127
22.57500	-130
22.58333	-134
22.59167	-137
22.60000	-140
22.60833	-143
22.61667	-146
22.62500	-148
22.63333	-151
22.64167	-153
22.65000	-156
22.65833	-158
22.66667	-160
22.67500	-162
22.68333	-163
22.69167	-165
22.70000	-166
22.70833	-167
22.71667	-168
22.72500	-168
22.73333	-168
22.74167	-169
22.75000	-169
22.75833	-169
22.76667	-169
22.77500	-168
22.78333	-166
22.79167	-165
22.80000	-163
22.80833	-162
22.81667	-161
22.82500	-159
22.83333	-157
22.84167	-155
22.85000	-153
22.85833	-150
22.86667	-148
22.87500	-145
22.88333	-142
22.89167	-139
22.90000	-136
22.90833	-133
22.91667	-130
22.92500	-126
22.93333	-123
22.94167	-120
22.95000	-117
22.95833	-114
22.96667	-111
22.97500	-108
22.98333	-105
22.99167	-103
23.00000	-100
23.00833	-98
23.01667	-96
23.02500	-93
23.03333	-90
23.04167	-88
23.05000	-86
23.05833	-85
23.06667	-83
23.07500	-81
23.08333	-79
23.09167	-77
23.10000	-76
23.10833	-74
23.11667	-73
23.12500	-71
23.13333	-70
23.14167	-68
23.15000	-67
23.15833	-66
23.16667	-65
23.17500	-64
23.18333	-62
23.19167	-62
23.20000	-61
23.20833	-60
23.21667	-60
23.22500	-59
23.23333	-58
23.24167	-57
23.25000	-56
23.25833	-56
23.26667	-55
23.27500	-55
23.28333	-54
23.29167	-53
23.30000	-52
23.30833	-52
23.31667	-51
23.32500	-51
23.33333	-51
23.34167	-50
23.35000	-50
23.35833	-50
23.36667	-50
23.37500	-50
23.38333	-50
23.39167	-49
23.40000	-49
23.40833	-49
23.41667	-49
23.42500	-48
23.43333	-48
23.44167	-48
23.45000	-48
23.45833	-47
23.46667	-47
23.47500	-47
23.48333	-47
23.49167	-48
23.50000	-48
23.50833	-47
23.51667	-47
23.52500	-47
23.53333	-48
23.54167	-48
23.55000	-48
23.55833	-47
23.56667	-47
23.57500	-47
23.58333	-48
23.59167	-48
23.60000	-48
23.60833	-48
23.61667	-48
23.62500	-48
23.63333	-48
23.64167	-48
23.65000	-47
23.65833	-47
23.66667	-47
23.67500	-47
23.68333	-47
23.69167	-46
23.70000	-46
23.70833	-46
23.71667	-46
23.72500	-46
23.73333	-45
23.74167	-45
23.75000	-45
23.75833	-46
23.76667	-46
23.77500	-46
23.78333	-46
23.79167	-45
23.80000	-45
23.80833	-46
23.81667	-46
23.82500	-46
23.83333	-45
23.84167	-45
23.85000	-44
23.85833	-44
23.86667	-44
23.87500	-44
23.88333	-44
23.89167	-43
23.90000	-43
23.90833	-43
23.91667	-43
23.92500	-43
23.93333	-43
23.94167	-44
23.95000	-44
23.95833	-45
23.96667	-45
23.97500	-45
23.98333	-45
23.99167	-45
24.00000	-46
24.00833	-46
24.01667	-47
24.02500	-47
24.03333	-47
24.04167	-48
24.05000	-48
24.05833	-49
24.06667	-50
24.07500	-51
24.08333	-52
24.09167	-53
24.10000	-54
24.10833	-55
24.11667	-56
24.12500	-57
24.13333	-58
24.14167	-59
24.15000	-60
24.15833	-61
24.16667	-63
24.17500	-64
24.18333	-65
24.19167	-66
24.20000	-68
24.20833	-69
24.21667	-70
24.22500	-71
24.23333	-72
24.24167	-74
24.25000	-75
24.25833	-76
24.26667	-77
24.27500	-78
24.28333	-79
24.29167	-80
24.30000	-81
24.30833	-82
24.31667	-83
24.32500	-84
24.33333	-85
24.34167	-85
24.35000	-86
24.35833	-87
24.36667	-87
24.37500	-88
24.38333	-88
24.39167	-88
24.40000	-88
24.40833	-88
24.41667	-87
24.42500	-87
24.43333	-86
24.44167	-86
24.45000	-86
24.45833	-86
24.46667	-85
24.47500	-85
24.48333	-84
24.49167	-83
24.50000	-82
24.50833	-82
24.51667	-81
24.52500	-80
24.53333	-80
24.54167	-79
24.55000	-79
24.55833	-77
24.56667	-76
24.57500	-75
24.58333	-74
24.59167	-73
24.60000	-72
24.60833	-71
24.61667	-70
24.62500	-69
24.63333	-68
24.64167	-66
24.65000	-65
24.65833	-64
24.66667	-63
24.67500	-62
24.68333	-61
24.69167	-60
24.70000	-59
24.70833	-58
24.71667	-57
24.72500	-56
24.73333	-55
24.74167	-55
24.75000	-55
24.75833	-54
24.76667	-53
24.77500	-52
24.78333	-51
24.79167	-51
24.80000	-50
24.80833	-49
24.81667	-49
24.82500	-49
24.83333	-49
24.84167	-48
24.85000	-48
24.85833	-48
24.86667	-47
24.87500	-47
24.88333	-47
24.89167	-46
24.90000	-46
24.90833	-46
24.91667	-46
24.92500	-46
24.93333	-45
24.94167	-45
24.95000	-45
24.95833	-45
24.96667	-45
24.97500	-46
24.98333	-46
24.99167	-46
25.00000	-46
25.00833	-47
25.01667	-46
25.02500	-46
25.03333	-46
25.04167	-46
25.05000	-46
25.05833	-46
25.06667	-46
25.07500	-46
25.08333	-47
25.09167	-47
25.10000	-47
25.10833	-46
25.11667	-46
25.12500	-46
25.13333	-46
25.14167	-46
25.15000	-46
25.15833	-46
25.16667	-46
25.17500	-46
25.18333	-46
25.19167	-45
25.20000	-45
25.20833	-45
25.21667	-44
25.22500	-44
25.23333	-44
25.24167	-44
25.25000	-44
25.25833	-44
25.26667	-43
25.27500	-43
25.28333	-42
25.29167	-42
25.30000	-41
25.30833	-40
25.31667	-39
25.32500	-39
25.33333	-38
25.34167	-38
25.35000	-37
25.35833	-36
25.36667	-35
25.37500	-34
25.38333	-33
25.39167	-32
25.40000	-31
25.40833	-30
25.41667	-29
25.42500	-28
25.43333	-27
25.44167	-26
25.45000	-24
25.45833	-23
25.46667	-22
25.47500	-20
25.48333	-18
25.49167	-16
25.50000	-14
25.50833	-12
25.51667	-9
25.52500	-7
25.53333	-5
25.54167	-3
25.55000	0
25.55833	3
25.56667	7
25.57500	10
25.58333	14
25.59167	18
25.60000	22
25.60833	27
25.61667	32
25.62500	38
25.63333	44
25.64167	50
25.65000	57
25.65833	63
25.66667	71
25.67500	79
25.68333	87
25.69167	96
25.70000	105
25.70833	115
25.71667	126
25.72500	137
25.73333	148
25.74167	161
25.75000	175
25.75833	190
25.76667	206
25.77500	222
25.78333	240
25.79167	259
25.80000	278
25.80833	300
25.81667	322
25.82500	345
25.83333	371
25.84167	397
25.85000	426
25.85833	456
25.86667	488
25.87500	521
25.88333	557
25.89167	595
25.90000	635
25.90833	676
25.91667	720
25.92500	767
25.93333	815
25.94167	866
25.95000	920
25.95833	976
25.96667	1035
25.97500	1095
25.98333	1159
25.99167	1224
26.00000	1291
26.00833	1360
26.01667	1431
26.02500	1505
26.03333	1580
26.04167	1657
26.05000	1734
26.05833	1814
26.06667	1893
26.07500	1974
26.08333	2055
26.09167	2135
26.10000	2215
26.10833	2294
26.11667	2372
26.12500	2448
26.13333	2522
26.14167	2594
26.15000	2664
26.15833	2731
26.16667	2795
26.17500	2854
26.18333	2909
26.19167	2959
26.20000	3005
26.20833	3045
26.21667	3080
26.22500	3110
26.23333	3134
26.24167	3152
26.25000	3165
26.25833	3171
26.26667	3171
26.27500	3165
26.28333	3152
26.29167	3134
26.30000	3110
26.30833	3081
26.31667	3046
26.32500	3005
26.33333	2959
26.34167	2909
26.35000	2854
26.35833	2795
26.36667	2733
26.37500	2666
26.38333	2597
26.39167	2525
26.40000	2450
26.40833	2373
26.41667	2295
26.42500	2216
26.43333	2135
26.44167	2055
26.45000	1974
26.45833	1893
26.46667	1812
26.47500	1732
26.48333	1653
26.49167	1575
26.50000	1498
26.50833	1424
26.51667	1351
26.52500	1280
26.53333	1210
26.54167	1143
26.55000	1078
26.55833	1015
26.56667	955
26.57500	897
26.58333	842
26.59167	788
26.60000	738
26.60833	689
26.61667	643
26.62500	599
26.63333	557
26.64167	517
26.65000	480
26.65833	445
26.66667	413
26.67500	382
26.68333	353
26.69167	326
26.70000	300
26.70833	276
26.71667	253
26.72500	232
26.73333	211
26.74167	193
26.75000	175
26.75833	159
26.76667	144
26.77500	129
26.78333	116
26.79167	104
26.80000	93
26.80833	82
26.81667	72
26.82500	63
26.83333	54
26.84167	46
26.85000	39
26.85833	32
26.86667	26
26.87500	20
26.88333	14
26.89167	9
26.90000	5
26.90833	0
26.91667	-3
26.92500	-7
26.93333	-10
26.94167	-14
26.95000	-17
26.95833	-20
26.96667	-22
26.97500	-25
26.98333	-28
26.99167	-30
27.00000	-32
27.00833	-34
27.01667	-36
27.02500	-37
27.03333	-39
27.04167	-40
27.05000	-42
27.05833	-43
27.06667	-44
27.07500	-46
27.08333	-47
27.09167	-48
27.10000	-49
27.10833	-50
27.11667	-50
27.12500	-51
27.13333	-52
27.14167	-53
27.15000	-54
27.15833	-54
27.16667	-55
27.17500	-55
27.18333	-56
27.19167	-57
27.20000	-57
27.20833	-58
27.21667	-58
27.22500	-58
27.23333	-59
27.24167	-59
27.25000	-59
27.25833	-59
27.26667	-59
27.27500	-60
27.28333	-60
27.29167	-60
27.30000	-60
27.30833	-60
27.31667	-61
27.32500	-61
27.33333	-61
27.34167	-61
27.35000	-61
27.35833	-61
27.36667	-61
27.37500	-60
27.38333	-60
27.39167	-60
27.40000	-60
27.40833	-59
27.41667	-59
27.42500	-59
27.43333	-59
27.44167	-59
27.45000	-59
27.45833	-59
27.46667	-59
27.47500	-59
27.48333	-60
27.49167	-60
27.50000	-60
27.50833	-60
27.51667	-60
27.52500	-60
27.53333	-60
27.54167	-60
27.55000	-60
27.55833	-60
27.56667	-60
27.57500	-60
27.58333	-60
27.59167	-60
27.60000	-60
27.60833	-59
27.61667	-59
27.62500	-59
27.63333	-58
27.64167	-58
27.65000	-58
27.65833	-58
27.66667	-58
27.67500	-58
27.68333	-58
27.69167	-59
27.70000	-58
27.70833	-59
27.71667	-59
27.72500	-59
27.73333	-59
27.74167	-59
27.75000	-60
27.75833	-60
27.76667	-60
27.77500	-60
27.78333	-60
27.79167	-61
27.80000	-61
27.80833	-61
27.81667	-61
27.82500	-61
27.83333	-61
27.84167	-61
27.85000	-61
27.85833	-61
27.86667	-61
27.87500	-61
27.88333	-61
27.89167	-62
27.90000	-62
27.90833	-63
27.91667	-63
27.92500	-63
27.93333	-63
27.94167	-63
27.95000	-63
27.95833	-63
27.96667	-63
27.97500	-63
27.98333	-63
27.99167	-63
28.00000	-63

