R.Time (min)	Intensity
0.00000	2
0.00833	2
0.01667	-0
0.02500	-0
0.03333	-0
0.04167	-0
0.05000	-1
0.05833	-1
0.06667	-1
0.07500	-1
0.08333	-1
0.09167	-1
0.10000	-1
0.10833	-1
0.11667	-1
0.12500	-0
0.13333	0
0.14167	0
0.15000	0
0.15833	0
0.16667	0
0.17500	0
0.18333	0
0.19167	0
0.20000	0
0.20833	0
0.21667	0
0.22500	0
0.23333	0
0.24167	-0
0.25000	-0
0.25833	0
0.26667	0
0.27500	0
0.28333	1
0.29167	1
0.30000	1
0.30833	1
0.31667	1
0.32500	1
0.33333	1
0.34167	1
0.35000	1
0.35833	1
0.36667	1
0.37500	1
0.38333	1
0.39167	1
0.40000	1
0.40833	1
0.41667	1
0.42500	1
0.43333	1
0.44167	1
0.45000	1
0.45833	1
0.46667	1
0.47500	1
0.48333	0
0.49167	0
0.50000	-0
0.50833	0
0.51667	0
0.52500	1
0.53333	1
0.54167	1
0.55000	1
0.55833	1
0.56667	0
0.57500	1
0.58333	1
0.59167	1
0.60000	1
0.60833	0
0.61667	0
0.62500	-0
0.63333	-0
0.64167	-0
0.65000	-0
0.65833	-0
0.66667	0
0.67500	-0
0.68333	-0
0.69167	-1
0.70000	-1
0.70833	-1
0.71667	-1
0.72500	-2
0.73333	-2
0.74167	-1
0.75000	-1
0.75833	-1
0.76667	-1
0.77500	-1
0.78333	-1
0.79167	-1
0.80000	-1
0.80833	-1
0.81667	-1
0.82500	-1
0.83333	-1
0.84167	-1
0.85000	-1
0.85833	-1
0.86667	-1
0.87500	-1
0.88333	-1
0.89167	-1
0.90000	-1
0.90833	-1
0.91667	-1
0.92500	-0
0.93333	0
0.94167	1
0.95000	1
0.95833	1
0.96667	1
0.97500	1
0.98333	1
0.99167	0
1.00000	0
1.00833	1
1.01667	1
1.02500	1
1.03333	1
1.04167	2
1.05000	2
1.05833	2
1.06667	2
1.07500	2
1.08333	2
1.09167	2
1.10000	3
1.10833	3
1.11667	3
1.12500	3
1.13333	4
1.14167	3
1.15000	3
1.15833	4
1.16667	4
1.17500	4
1.18333	4
1.19167	4
1.20000	4
1.20833	4
1.21667	4
1.22500	4
1.23333	4
1.24167	4
1.25000	4
1.25833	4
1.26667	4
1.27500	5
1.28333	5
1.29167	5
1.30000	5
1.30833	5
1.31667	5
1.32500	5
1.33333	6
1.34167	5
1.35000	5
1.35833	5
1.36667	5
1.37500	5
1.38333	5
1.39167	5
1.40000	5
1.40833	5
1.41667	5
1.42500	5
1.43333	5
1.44167	5
1.45000	5
1.45833	5
1.46667	5
1.47500	5
1.48333	5
1.49167	5
1.50000	5
1.50833	5
1.51667	5
1.52500	5
1.53333	4
1.54167	4
1.55000	5
1.55833	5
1.56667	5
1.57500	5
1.58333	5
1.59167	5
1.60000	5
1.60833	5
1.61667	5
1.62500	5
1.63333	5
1.64167	5
1.65000	5
1.65833	5
1.66667	5
1.67500	6
1.68333	6
1.69167	6
1.70000	6
1.70833	6
1.71667	5
1.72500	5
1.73333	5
1.74167	6
1.75000	6
1.75833	6
1.76667	6
1.77500	6
1.78333	6
1.79167	7
1.80000	7
1.80833	7
1.81667	8
1.82500	7
1.83333	7
1.84167	7
1.85000	7
1.85833	6
1.86667	6
1.87500	7
1.88333	7
1.89167	7
1.90000	8
1.90833	8
1.91667	8
1.92500	8
1.93333	8
1.94167	8
1.95000	8
1.95833	8
1.96667	7
1.97500	7
1.98333	7
1.99167	7
2.00000	7
2.00833	7
2.01667	7
2.02500	7
2.03333	7
2.04167	7
2.05000	7
2.05833	7
2.06667	7
2.07500	7
2.08333	7
2.09167	7
2.10000	7
2.10833	7
2.11667	7
2.12500	7
2.13333	7
2.14167	7
2.15000	6
2.15833	6
2.16667	7
2.17500	7
2.18333	7
2.19167	7
2.20000	7
2.20833	7
2.21667	7
2.22500	7
2.23333	7
2.24167	7
2.25000	7
2.25833	7
2.26667	8
2.27500	8
2.28333	8
2.29167	8
2.30000	8
2.30833	9
2.31667	9
2.32500	9
2.33333	9
2.34167	9
2.35000	9
2.35833	9
2.36667	9
2.37500	10
2.38333	10
2.39167	10
2.40000	10
2.40833	11
2.41667	11
2.42500	11
2.43333	12
2.44167	12
2.45000	12
2.45833	12
2.46667	12
2.47500	12
2.48333	12
2.49167	13
2.50000	13
2.50833	13
2.51667	13
2.52500	13
2.53333	13
2.54167	13
2.55000	14
2.55833	14
2.56667	14
2.57500	14
2.58333	15
2.59167	15
2.60000	15
2.60833	15
2.61667	14
2.62500	14
2.63333	14
2.64167	15
2.65000	15
2.65833	15
2.66667	15
2.67500	15
2.68333	14
2.69167	14
2.70000	14
2.70833	14
2.71667	14
2.72500	15
2.73333	15
2.74167	15
2.75000	15
2.75833	15
2.76667	15
2.77500	15
2.78333	15
2.79167	15
2.80000	16
2.80833	16
2.81667	16
2.82500	16
2.83333	17
2.84167	17
2.85000	17
2.85833	17
2.86667	17
2.87500	17
2.88333	16
2.89167	16
2.90000	16
2.90833	16
2.91667	17
2.92500	17
2.93333	17
2.94167	16
2.95000	17
2.95833	17
2.96667	17
2.97500	18
2.98333	18
2.99167	19
3.00000	19
3.00833	19
3.01667	19
3.02500	20
3.03333	20
3.04167	20
3.05000	20
3.05833	20
3.06667	21
3.07500	21
3.08333	21
3.09167	21
3.10000	21
3.10833	22
3.11667	22
3.12500	22
3.13333	21
3.14167	22
3.15000	22
3.15833	22
3.16667	22
3.17500	22
3.18333	23
3.19167	23
3.20000	23
3.20833	23
3.21667	23
3.22500	24
3.23333	24
3.24167	25
3.25000	25
3.25833	24
3.26667	25
3.27500	25
3.28333	25
3.29167	25
3.30000	25
3.30833	25
3.31667	25
3.32500	25
3.33333	25
3.34167	25
3.35000	25
3.35833	25
3.36667	25
3.37500	24
3.38333	24
3.39167	24
3.40000	23
3.40833	24
3.41667	24
3.42500	24
3.43333	25
3.44167	25
3.45000	25
3.45833	25
3.46667	25
3.47500	26
3.48333	26
3.49167	26
3.50000	26
3.50833	26
3.51667	26
3.52500	26
3.53333	26
3.54167	26
3.55000	26
3.55833	25
3.56667	25
3.57500	25
3.58333	25
3.59167	25
3.60000	26
3.60833	26
3.61667	26
3.62500	26
3.63333	26
3.64167	26
3.65000	26
3.65833	27
3.66667	27
3.67500	27
3.68333	27
3.69167	27
3.70000	28
3.70833	28
3.71667	28
3.72500	29
3.73333	29
3.74167	29
3.75000	29
3.75833	30
3.76667	29
3.77500	30
3.78333	30
3.79167	31
3.80000	31
3.80833	31
3.81667	31
3.82500	31
3.83333	32
3.84167	32
3.85000	32
3.85833	32
3.86667	32
3.87500	33
3.88333	33
3.89167	33
3.90000	33
3.90833	33
3.91667	34
3.92500	34
3.93333	34
3.94167	34
3.95000	34
3.95833	34
3.96667	34
3.97500	34
3.98333	35
3.99167	35
4.00000	35
4.00833	36
4.01667	36
4.02500	36
4.03333	35
4.04167	35
4.05000	35
4.05833	35
4.06667	35
4.07500	35
4.08333	35
4.09167	36
4.10000	36
4.10833	37
4.11667	37
4.12500	38
4.13333	38
4.14167	38
4.15000	38
4.15833	37
4.16667	37
4.17500	37
4.18333	37
4.19167	37
4.20000	37
4.20833	38
4.21667	38
4.22500	38
4.23333	38
4.24167	38
4.25000	38
4.25833	38
4.26667	39
4.27500	39
4.28333	40
4.29167	40
4.30000	41
4.30833	41
4.31667	42
4.32500	42
4.33333	42
4.34167	42
4.35000	43
4.35833	43
4.36667	43
4.37500	44
4.38333	44
4.39167	44
4.40000	44
4.40833	44
4.41667	45
4.42500	45
4.43333	46
4.44167	47
4.45000	47
4.45833	47
4.46667	47
4.47500	48
4.48333	48
4.49167	48
4.50000	49
4.50833	49
4.51667	50
4.52500	51
4.53333	51
4.54167	52
4.55000	52
4.55833	52
4.56667	52
4.57500	52
4.58333	53
4.59167	53
4.60000	53
4.60833	53
4.61667	54
4.62500	54
4.63333	54
4.64167	54
4.65000	54
4.65833	55
4.66667	55
4.67500	56
4.68333	56
4.69167	56
4.70000	57
4.70833	57
4.71667	57
4.72500	57
4.73333	58
4.74167	58
4.75000	58
4.75833	59
4.76667	59
4.77500	60
4.78333	60
4.79167	60
4.80000	60
4.80833	60
4.81667	60
4.82500	61
4.83333	61
4.84167	61
4.85000	61
4.85833	62
4.86667	62
4.87500	62
4.88333	63
4.89167	63
4.90000	63
4.90833	64
4.91667	64
4.92500	64
4.93333	65
4.94167	65
4.95000	65
4.95833	65
4.96667	66
4.97500	66
4.98333	66
4.99167	67
5.00000	67
5.00833	67
5.01667	68
5.02500	68
5.03333	68
5.04167	69
5.05000	69
5.05833	70
5.06667	70
5.07500	70
5.08333	70
5.09167	71
5.10000	71
5.10833	71
5.11667	72
5.12500	72
5.13333	73
5.14167	73
5.15000	73
5.15833	74
5.16667	74
5.17500	74
5.18333	74
5.19167	75
5.20000	75
5.20833	75
5.21667	75
5.22500	76
5.23333	76
5.24167	76
5.25000	77
5.25833	77
5.26667	78
5.27500	78
5.28333	78
5.29167	79
5.30000	79
5.30833	80
5.31667	80
5.32500	80
5.33333	80
5.34167	80
5.35000	81
5.35833	81
5.36667	82
5.37500	83
5.38333	83
5.39167	84
5.40000	84
5.40833	84
5.41667	84
5.42500	84
5.43333	84
5.44167	85
5.45000	85
5.45833	85
5.46667	85
5.47500	85
5.48333	86
5.49167	86
5.50000	86
5.50833	87
5.51667	88
5.52500	88
5.53333	88
5.54167	88
5.55000	88
5.55833	89
5.56667	89
5.57500	90
5.58333	90
5.59167	90
5.60000	91
5.60833	91
5.61667	92
5.62500	92
5.63333	93
5.64167	93
5.65000	94
5.65833	95
5.66667	95
5.67500	95
5.68333	96
5.69167	96
5.70000	97
5.70833	97
5.71667	98
5.72500	98
5.73333	98
5.74167	99
5.75000	99
5.75833	99
5.76667	99
5.77500	99
5.78333	100
5.79167	101
5.80000	101
5.80833	102
5.81667	103
5.82500	103
5.83333	104
5.84167	105
5.85000	105
5.85833	106
5.86667	107
5.87500	107
5.88333	108
5.89167	109
5.90000	109
5.90833	109
5.91667	110
5.92500	110
5.93333	111
5.94167	112
5.95000	112
5.95833	113
5.96667	113
5.97500	113
5.98333	113
5.99167	113
6.00000	114
6.00833	114
6.01667	115
6.02500	115
6.03333	116
6.04167	116
6.05000	117
6.05833	117
6.06667	118
6.07500	118
6.08333	118
6.09167	118
6.10000	118
6.10833	119
6.11667	120
6.12500	120
6.13333	121
6.14167	121
6.15000	122
6.15833	122
6.16667	122
6.17500	122
6.18333	123
6.19167	123
6.20000	123
6.20833	124
6.21667	124
6.22500	125
6.23333	125
6.24167	125
6.25000	126
6.25833	126
6.26667	127
6.27500	127
6.28333	128
6.29167	128
6.30000	129
6.30833	129
6.31667	130
6.32500	131
6.33333	131
6.34167	132
6.35000	133
6.35833	133
6.36667	134
6.37500	134
6.38333	135
6.39167	135
6.40000	136
6.40833	136
6.41667	137
6.42500	138
6.43333	139
6.44167	139
6.45000	140
6.45833	140
6.46667	140
6.47500	140
6.48333	141
6.49167	141
6.50000	142
6.50833	142
6.51667	142
6.52500	143
6.53333	143
6.54167	144
6.55000	145
6.55833	145
6.56667	145
6.57500	146
6.58333	146
6.59167	146
6.60000	146
6.60833	147
6.61667	147
6.62500	147
6.63333	148
6.64167	148
6.65000	149
6.65833	149
6.66667	150
6.67500	151
6.68333	152
6.69167	152
6.70000	153
6.70833	153
6.71667	154
6.72500	154
6.73333	155
6.74167	155
6.75000	156
6.75833	156
6.76667	156
6.77500	156
6.78333	156
6.79167	157
6.80000	157
6.80833	157
6.81667	158
6.82500	159
6.83333	159
6.84167	160
6.85000	161
6.85833	161
6.86667	162
6.87500	162
6.88333	163
6.89167	163
6.90000	163
6.90833	164
6.91667	164
6.92500	165
6.93333	165
6.94167	166
6.95000	166
6.95833	167
6.96667	167
6.97500	168
6.98333	169
6.99167	170
7.00000	171
7.00833	171
7.01667	172
7.02500	172
7.03333	173
7.04167	173
7.05000	174
7.05833	174
7.06667	174
7.07500	174
7.08333	175
7.09167	176
7.10000	176
7.10833	176
7.11667	177
7.12500	177
7.13333	177
7.14167	177
7.15000	177
7.15833	177
7.16667	177
7.17500	177
7.18333	178
7.19167	178
7.20000	179
7.20833	179
7.21667	180
7.22500	180
7.23333	181
7.24167	181
7.25000	181
7.25833	182
7.26667	182
7.27500	183
7.28333	183
7.29167	184
7.30000	185
7.30833	185
7.31667	186
7.32500	186
7.33333	186
7.34167	187
7.35000	188
7.35833	188
7.36667	189
7.37500	189
7.38333	190
7.39167	190
7.40000	189
7.40833	187
7.41667	183
7.42500	174
7.43333	160
7.44167	137
7.45000	102
7.45833	49
7.46667	-24
7.47500	-123
7.48333	-252
7.49167	-414
7.50000	-611
7.50833	-844
7.51667	-1108
7.52500	-1398
7.53333	-1707
7.54167	-2025
7.55000	-2340
7.55833	-2639
7.56667	-2912
7.57500	-3146
7.58333	-3334
7.59167	-3469
7.60000	-3548
7.60833	-3570
7.61667	-3538
7.62500	-3455
7.63333	-3329
7.64167	-3166
7.65000	-2976
7.65833	-2766
7.66667	-2544
7.67500	-2317
7.68333	-2090
7.69167	-1870
7.70000	-1659
7.70833	-1461
7.71667	-1278
7.72500	-1110
7.73333	-957
7.74167	-820
7.75000	-698
7.75833	-589
7.76667	-493
7.77500	-407
7.78333	-332
7.79167	-267
7.80000	-209
7.80833	-158
7.81667	-113
7.82500	-74
7.83333	-38
7.84167	-7
7.85000	20
7.85833	45
7.86667	66
7.87500	85
7.88333	102
7.89167	117
7.90000	130
7.90833	142
7.91667	153
7.92500	162
7.93333	170
7.94167	176
7.95000	183
7.95833	188
7.96667	193
7.97500	197
7.98333	201
7.99167	205
8.00000	209
8.00833	213
8.01667	217
8.02500	221
8.03333	225
8.04167	230
8.05000	236
8.05833	242
8.06667	249
8.07500	257
8.08333	265
8.09167	275
8.10000	284
8.10833	294
8.11667	305
8.12500	317
8.13333	328
8.14167	340
8.15000	351
8.15833	361
8.16667	372
8.17500	381
8.18333	389
8.19167	396
8.20000	402
8.20833	407
8.21667	411
8.22500	413
8.23333	413
8.24167	413
8.25000	411
8.25833	408
8.26667	404
8.27500	400
8.28333	395
8.29167	389
8.30000	383
8.30833	376
8.31667	370
8.32500	364
8.33333	357
8.34167	351
8.35000	345
8.35833	339
8.36667	334
8.37500	328
8.38333	324
8.39167	319
8.40000	314
8.40833	310
8.41667	306
8.42500	302
8.43333	299
8.44167	296
8.45000	293
8.45833	290
8.46667	288
8.47500	286
8.48333	283
8.49167	281
8.50000	279
8.50833	277
8.51667	275
8.52500	274
8.53333	272
8.54167	271
8.55000	269
8.55833	268
8.56667	267
8.57500	267
8.58333	267
8.59167	267
8.60000	267
8.60833	268
8.61667	270
8.62500	272
8.63333	275
8.64167	279
8.65000	284
8.65833	291
8.66667	299
8.67500	309
8.68333	321
8.69167	336
8.70000	354
8.70833	376
8.71667	403
8.72500	436
8.73333	477
8.74167	526
8.75000	586
8.75833	660
8.76667	750
8.77500	862
8.78333	999
8.79167	1168
8.80000	1375
8.80833	1626
8.81667	1932
8.82500	2300
8.83333	2740
8.84167	3262
8.85000	3874
8.85833	4585
8.86667	5399
8.87500	6321
8.88333	7350
8.89167	8485
8.90000	9718
8.90833	11038
8.91667	12428
8.92500	13870
8.93333	15340
8.94167	16812
8.95000	18257
8.95833	19643
8.96667	20943
8.97500	22128
8.98333	23172
8.99167	24052
9.00000	24750
9.00833	25254
9.01667	25555
9.02500	25652
9.03333	25547
9.04167	25251
9.05000	24776
9.05833	24138
9.06667	23358
9.07500	22457
9.08333	21457
9.09167	20381
9.10000	19253
9.10833	18093
9.11667	16923
9.12500	15758
9.13333	14614
9.14167	13504
9.15000	12439
9.15833	11426
9.16667	10472
9.17500	9579
9.18333	8751
9.19167	7986
9.20000	7285
9.20833	6645
9.21667	6064
9.22500	5537
9.23333	5062
9.24167	4635
9.25000	4251
9.25833	3906
9.26667	3597
9.27500	3319
9.28333	3069
9.29167	2845
9.30000	2642
9.30833	2460
9.31667	2295
9.32500	2144
9.33333	2007
9.34167	1881
9.35000	1765
9.35833	1658
9.36667	1559
9.37500	1467
9.38333	1382
9.39167	1302
9.40000	1227
9.40833	1158
9.41667	1092
9.42500	1031
9.43333	974
9.44167	921
9.45000	872
9.45833	825
9.46667	782
9.47500	742
9.48333	704
9.49167	670
9.50000	637
9.50833	608
9.51667	580
9.52500	555
9.53333	533
9.54167	511
9.55000	492
9.55833	475
9.56667	459
9.57500	444
9.58333	430
9.59167	418
9.60000	406
9.60833	396
9.61667	387
9.62500	378
9.63333	370
9.64167	362
9.65000	356
9.65833	350
9.66667	346
9.67500	341
9.68333	337
9.69167	333
9.70000	330
9.70833	326
9.71667	323
9.72500	321
9.73333	318
9.74167	316
9.75000	313
9.75833	311
9.76667	309
9.77500	307
9.78333	306
9.79167	305
9.80000	303
9.80833	302
9.81667	301
9.82500	300
9.83333	299
9.84167	298
9.85000	297
9.85833	296
9.86667	294
9.87500	293
9.88333	292
9.89167	291
9.90000	291
9.90833	290
9.91667	290
9.92500	290
9.93333	290
9.94167	289
9.95000	288
9.95833	287
9.96667	286
9.97500	285
9.98333	284
9.99167	284
10.00000	283
10.00833	283
10.01667	282
10.02500	282
10.03333	281
10.04167	281
10.05000	280
10.05833	279
10.06667	279
10.07500	278
10.08333	278
10.09167	278
10.10000	277
10.10833	277
10.11667	276
10.12500	276
10.13333	275
10.14167	275
10.15000	275
10.15833	275
10.16667	274
10.17500	274
10.18333	273
10.19167	273
10.20000	272
10.20833	272
10.21667	271
10.22500	271
10.23333	271
10.24167	270
10.25000	270
10.25833	270
10.26667	270
10.27500	269
10.28333	269
10.29167	270
10.30000	270
10.30833	270
10.31667	270
10.32500	269
10.33333	269
10.34167	269
10.35000	269
10.35833	269
10.36667	269
10.37500	269
10.38333	269
10.39167	268
10.40000	268
10.40833	268
10.41667	269
10.42500	269
10.43333	269
10.44167	268
10.45000	268
10.45833	268
10.46667	269
10.47500	269
10.48333	269
10.49167	269
10.50000	269
10.50833	269
10.51667	269
10.52500	270
10.53333	270
10.54167	271
10.55000	271
10.55833	272
10.56667	274
10.57500	275
10.58333	277
10.59167	279
10.60000	281
10.60833	285
10.61667	288
10.62500	293
10.63333	299
10.64167	305
10.65000	313
10.65833	322
10.66667	333
10.67500	345
10.68333	360
10.69167	376
10.70000	396
10.70833	419
10.71667	445
10.72500	476
10.73333	511
10.74167	552
10.75000	599
10.75833	654
10.76667	718
10.77500	793
10.78333	879
10.79167	981
10.80000	1100
10.80833	1240
10.81667	1404
10.82500	1597
10.83333	1824
10.84167	2091
10.85000	2405
10.85833	2772
10.86667	3200
10.87500	3697
10.88333	4270
10.89167	4927
10.90000	5672
10.90833	6510
10.91667	7445
10.92500	8476
10.93333	9600
10.94167	10813
10.95000	12105
10.95833	13464
10.96667	14873
10.97500	16314
10.98333	17763
10.99167	19197
11.00000	20591
11.00833	21917
11.01667	23149
11.02500	24263
11.03333	25236
11.04167	26049
11.05000	26686
11.05833	27135
11.06667	27389
11.07500	27447
11.08333	27311
11.09167	26989
11.10000	26493
11.10833	25837
11.11667	25039
11.12500	24119
11.13333	23098
11.14167	21998
11.15000	20841
11.15833	19647
11.16667	18435
11.17500	17223
11.18333	16027
11.19167	14859
11.20000	13732
11.20833	12654
11.21667	11631
11.22500	10668
11.23333	9768
11.24167	8932
11.25000	8160
11.25833	7450
11.26667	6802
11.27500	6210
11.28333	5673
11.29167	5187
11.30000	4748
11.30833	4351
11.31667	3993
11.32500	3671
11.33333	3381
11.34167	3119
11.35000	2882
11.35833	2668
11.36667	2474
11.37500	2297
11.38333	2137
11.39167	1990
11.40000	1855
11.40833	1732
11.41667	1618
11.42500	1513
11.43333	1416
11.44167	1327
11.45000	1244
11.45833	1167
11.46667	1095
11.47500	1029
11.48333	968
11.49167	911
11.50000	858
11.50833	808
11.51667	763
11.52500	721
11.53333	682
11.54167	645
11.55000	612
11.55833	582
11.56667	554
11.57500	528
11.58333	505
11.59167	484
11.60000	465
11.60833	447
11.61667	431
11.62500	417
11.63333	403
11.64167	391
11.65000	380
11.65833	370
11.66667	361
11.67500	352
11.68333	345
11.69167	339
11.70000	332
11.70833	327
11.71667	322
11.72500	318
11.73333	314
11.74167	310
11.75000	307
11.75833	304
11.76667	301
11.77500	299
11.78333	298
11.79167	296
11.80000	295
11.80833	294
11.81667	294
11.82500	294
11.83333	295
11.84167	295
11.85000	296
11.85833	297
11.86667	298
11.87500	299
11.88333	300
11.89167	301
11.90000	302
11.90833	303
11.91667	304
11.92500	304
11.93333	305
11.94167	305
11.95000	305
11.95833	304
11.96667	302
11.97500	301
11.98333	299
11.99167	296
12.00000	294
12.00833	291
12.01667	288
12.02500	284
12.03333	281
12.04167	277
12.05000	273
12.05833	269
12.06667	265
12.07500	261
12.08333	257
12.09167	254
12.10000	250
12.10833	246
12.11667	243
12.12500	239
12.13333	236
12.14167	234
12.15000	231
12.15833	229
12.16667	227
12.17500	225
12.18333	222
12.19167	220
12.20000	219
12.20833	217
12.21667	215
12.22500	213
12.23333	211
12.24167	210
12.25000	208
12.25833	207
12.26667	206
12.27500	205
12.28333	204
12.29167	203
12.30000	202
12.30833	202
12.31667	201
12.32500	200
12.33333	200
12.34167	199
12.35000	198
12.35833	197
12.36667	196
12.37500	195
12.38333	194
12.39167	194
12.40000	193
12.40833	193
12.41667	193
12.42500	193
12.43333	192
12.44167	192
12.45000	191
12.45833	191
12.46667	190
12.47500	190
12.48333	189
12.49167	189
12.50000	188
12.50833	188
12.51667	187
12.52500	187
12.53333	186
12.54167	186
12.55000	185
12.55833	185
12.56667	185
12.57500	184
12.58333	184
12.59167	184
12.60000	183
12.60833	183
12.61667	182
12.62500	182
12.63333	181
12.64167	181
12.65000	180
12.65833	179
12.66667	178
12.67500	177
12.68333	176
12.69167	175
12.70000	174
12.70833	174
12.71667	173
12.72500	173
12.73333	172
12.74167	171
12.75000	170
12.75833	169
12.76667	168
12.77500	168
12.78333	168
12.79167	167
12.80000	167
12.80833	166
12.81667	165
12.82500	165
12.83333	164
12.84167	164
12.85000	163
12.85833	163
12.86667	163
12.87500	162
12.88333	162
12.89167	161
12.90000	161
12.90833	160
12.91667	159
12.92500	159
12.93333	159
12.94167	158
12.95000	158
12.95833	158
12.96667	157
12.97500	157
12.98333	157
12.99167	157
13.00000	158
13.00833	158
13.01667	157
13.02500	157
13.03333	156
13.04167	156
13.05000	155
13.05833	155
13.06667	154
13.07500	153
13.08333	153
13.09167	152
13.10000	152
13.10833	151
13.11667	151
13.12500	150
13.13333	150
13.14167	149
13.15000	148
13.15833	147
13.16667	147
13.17500	147
13.18333	146
13.19167	146
13.20000	145
13.20833	144
13.21667	144
13.22500	143
13.23333	143
13.24167	142
13.25000	142
13.25833	142
13.26667	141
13.27500	141
13.28333	140
13.29167	140
13.30000	140
13.30833	140
13.31667	139
13.32500	139
13.33333	139
13.34167	138
13.35000	138
13.35833	138
13.36667	137
13.37500	137
13.38333	136
13.39167	136
13.40000	135
13.40833	135
13.41667	135
13.42500	135
13.43333	135
13.44167	134
13.45000	134
13.45833	135
13.46667	135
13.47500	135
13.48333	135
13.49167	135
13.50000	135
13.50833	135
13.51667	135
13.52500	136
13.53333	136
13.54167	136
13.55000	137
13.55833	138
13.56667	138
13.57500	139
13.58333	140
13.59167	141
13.60000	142
13.60833	143
13.61667	145
13.62500	146
13.63333	148
13.64167	150
13.65000	151
13.65833	153
13.66667	154
13.67500	156
13.68333	157
13.69167	158
13.70000	159
13.70833	160
13.71667	161
13.72500	161
13.73333	161
13.74167	161
13.75000	161
13.75833	160
13.76667	159
13.77500	158
13.78333	157
13.79167	155
13.80000	154
13.80833	152
13.81667	150
13.82500	148
13.83333	146
13.84167	145
13.85000	143
13.85833	141
13.86667	140
13.87500	138
13.88333	136
13.89167	135
13.90000	133
13.90833	132
13.91667	130
13.92500	129
13.93333	128
13.94167	127
13.95000	125
13.95833	124
13.96667	123
13.97500	122
13.98333	121
13.99167	120
14.00000	119
14.00833	118
14.01667	118
14.02500	118
14.03333	118
14.04167	117
14.05000	117
14.05833	117
14.06667	117
14.07500	117
14.08333	117
14.09167	117
14.10000	118
14.10833	117
14.11667	117
14.12500	117
14.13333	117
14.14167	118
14.15000	119
14.15833	120
14.16667	120
14.17500	120
14.18333	121
14.19167	121
14.20000	122
14.20833	123
14.21667	124
14.22500	125
14.23333	126
14.24167	126
14.25000	127
14.25833	128
14.26667	129
14.27500	130
14.28333	131
14.29167	132
14.30000	134
14.30833	135
14.31667	136
14.32500	137
14.33333	139
14.34167	141
14.35000	142
14.35833	144
14.36667	146
14.37500	147
14.38333	149
14.39167	152
14.40000	154
14.40833	156
14.41667	158
14.42500	160
14.43333	162
14.44167	165
14.45000	168
14.45833	170
14.46667	173
14.47500	176
14.48333	179
14.49167	182
14.50000	186
14.50833	189
14.51667	193
14.52500	197
14.53333	201
14.54167	206
14.55000	210
14.55833	215
14.56667	220
14.57500	224
14.58333	229
14.59167	234
14.60000	240
14.60833	245
14.61667	251
14.62500	257
14.63333	263
14.64167	270
14.65000	276
14.65833	283
14.66667	290
14.67500	297
14.68333	304
14.69167	311
14.70000	318
14.70833	326
14.71667	334
14.72500	342
14.73333	351
14.74167	360
14.75000	369
14.75833	379
14.76667	389
14.77500	399
14.78333	409
14.79167	420
14.80000	431
14.80833	442
14.81667	454
14.82500	466
14.83333	479
14.84167	493
14.85000	507
14.85833	522
14.86667	538
14.87500	553
14.88333	570
14.89167	588
14.90000	606
14.90833	625
14.91667	645
14.92500	666
14.93333	688
14.94167	711
14.95000	735
14.95833	760
14.96667	787
14.97500	815
14.98333	845
14.99167	876
15.00000	909
15.00833	944
15.01667	981
15.02500	1020
15.03333	1061
15.04167	1105
15.05000	1151
15.05833	1200
15.06667	1251
15.07500	1306
15.08333	1364
15.09167	1426
15.10000	1492
15.10833	1562
15.11667	1637
15.12500	1717
15.13333	1802
15.14167	1893
15.15000	1992
15.15833	2097
15.16667	2211
15.17500	2334
15.18333	2466
15.19167	2610
15.20000	2767
15.20833	2937
15.21667	3122
15.22500	3323
15.23333	3542
15.24167	3779
15.25000	4036
15.25833	4315
15.26667	4616
15.27500	4939
15.28333	5286
15.29167	5657
15.30000	6050
15.30833	6465
15.31667	6901
15.32500	7356
15.33333	7827
15.34167	8310
15.35000	8803
15.35833	9301
15.36667	9799
15.37500	10292
15.38333	10775
15.39167	11242
15.40000	11687
15.40833	12105
15.41667	12491
15.42500	12840
15.43333	13147
15.44167	13409
15.45000	13623
15.45833	13785
15.46667	13896
15.47500	13954
15.48333	13960
15.49167	13915
15.50000	13820
15.50833	13680
15.51667	13497
15.52500	13275
15.53333	13019
15.54167	12732
15.55000	12421
15.55833	12089
15.56667	11742
15.57500	11384
15.58333	11019
15.59167	10652
15.60000	10286
15.60833	9923
15.61667	9567
15.62500	9220
15.63333	8885
15.64167	8561
15.65000	8252
15.65833	7956
15.66667	7675
15.67500	7409
15.68333	7157
15.69167	6919
15.70000	6695
15.70833	6484
15.71667	6285
15.72500	6097
15.73333	5919
15.74167	5752
15.75000	5593
15.75833	5443
15.76667	5300
15.77500	5163
15.78333	5031
15.79167	4905
15.80000	4783
15.80833	4666
15.81667	4553
15.82500	4443
15.83333	4336
15.84167	4231
15.85000	4129
15.85833	4029
15.86667	3931
15.87500	3835
15.88333	3741
15.89167	3648
15.90000	3556
15.90833	3466
15.91667	3378
15.92500	3291
15.93333	3205
15.94167	3121
15.95000	3037
15.95833	2955
15.96667	2873
15.97500	2793
15.98333	2714
15.99167	2637
16.00000	2560
16.00833	2485
16.01667	2411
16.02500	2338
16.03333	2266
16.04167	2196
16.05000	2128
16.05833	2060
16.06667	1995
16.07500	1930
16.08333	1867
16.09167	1805
16.10000	1744
16.10833	1685
16.11667	1627
16.12500	1570
16.13333	1515
16.14167	1461
16.15000	1409
16.15833	1357
16.16667	1308
16.17500	1259
16.18333	1213
16.19167	1167
16.20000	1123
16.20833	1079
16.21667	1038
16.22500	997
16.23333	958
16.24167	919
16.25000	882
16.25833	847
16.26667	812
16.27500	779
16.28333	747
16.29167	716
16.30000	686
16.30833	657
16.31667	629
16.32500	603
16.33333	577
16.34167	552
16.35000	529
16.35833	506
16.36667	484
16.37500	463
16.38333	443
16.39167	423
16.40000	405
16.40833	387
16.41667	370
16.42500	354
16.43333	339
16.44167	324
16.45000	310
16.45833	297
16.46667	284
16.47500	272
16.48333	260
16.49167	249
16.50000	238
16.50833	229
16.51667	219
16.52500	210
16.53333	201
16.54167	192
16.55000	184
16.55833	177
16.56667	169
16.57500	162
16.58333	156
16.59167	150
16.60000	144
16.60833	137
16.61667	132
16.62500	127
16.63333	122
16.64167	118
16.65000	113
16.65833	109
16.66667	105
16.67500	101
16.68333	98
16.69167	94
16.70000	91
16.70833	88
16.71667	85
16.72500	82
16.73333	80
16.74167	77
16.75000	75
16.75833	73
16.76667	71
16.77500	69
16.78333	67
16.79167	65
16.80000	63
16.80833	62
16.81667	60
16.82500	58
16.83333	56
16.84167	55
16.85000	53
16.85833	52
16.86667	51
16.87500	49
16.88333	48
16.89167	47
16.90000	45
16.90833	44
16.91667	43
16.92500	42
16.93333	41
16.94167	39
16.95000	38
16.95833	37
16.96667	37
16.97500	36
16.98333	35
16.99167	34
17.00000	33
17.00833	32
17.01667	31
17.02500	30
17.03333	30
17.04167	29
17.05000	29
17.05833	28
17.06667	28
17.07500	28
17.08333	27
17.09167	27
17.10000	27
17.10833	27
17.11667	27
17.12500	27
17.13333	27
17.14167	27
17.15000	26
17.15833	26
17.16667	26
17.17500	26
17.18333	26
17.19167	26
17.20000	25
17.20833	25
17.21667	25
17.22500	25
17.23333	25
17.24167	25
17.25000	25
17.25833	25
17.26667	25
17.27500	24
17.28333	24
17.29167	25
17.30000	25
17.30833	25
17.31667	24
17.32500	24
17.33333	24
17.34167	24
17.35000	24
17.35833	24
17.36667	24
17.37500	23
17.38333	24
17.39167	24
17.40000	24
17.40833	24
17.41667	24
17.42500	24
17.43333	23
17.44167	23
17.45000	24
17.45833	24
17.46667	25
17.47500	25
17.48333	25
17.49167	25
17.50000	25
17.50833	25
17.51667	24
17.52500	24
17.53333	24
17.54167	24
17.55000	23
17.55833	23
17.56667	23
17.57500	23
17.58333	23
17.59167	23
17.60000	23
17.60833	23
17.61667	24
17.62500	24
17.63333	25
17.64167	26
17.65000	27
17.65833	28
17.66667	29
17.67500	31
17.68333	34
17.69167	36
17.70000	39
17.70833	42
17.71667	46
17.72500	49
17.73333	54
17.74167	59
17.75000	64
17.75833	69
17.76667	75
17.77500	82
17.78333	90
17.79167	98
17.80000	107
17.80833	118
17.81667	129
17.82500	142
17.83333	156
17.84167	171
17.85000	187
17.85833	205
17.86667	225
17.87500	246
17.88333	270
17.89167	296
17.90000	324
17.90833	355
17.91667	390
17.92500	427
17.93333	468
17.94167	513
17.95000	563
17.95833	617
17.96667	676
17.97500	741
17.98333	812
17.99167	889
18.00000	974
18.00833	1066
18.01667	1166
18.02500	1275
18.03333	1392
18.04167	1518
18.05000	1653
18.05833	1798
18.06667	1951
18.07500	2114
18.08333	2285
18.09167	2464
18.10000	2650
18.10833	2843
18.11667	3041
18.12500	3242
18.13333	3447
18.14167	3652
18.15000	3857
18.15833	4059
18.16667	4256
18.17500	4447
18.18333	4629
18.19167	4801
18.20000	4960
18.20833	5104
18.21667	5232
18.22500	5343
18.23333	5435
18.24167	5506
18.25000	5557
18.25833	5586
18.26667	5594
18.27500	5580
18.28333	5545
18.29167	5490
18.30000	5415
18.30833	5321
18.31667	5209
18.32500	5083
18.33333	4942
18.34167	4789
18.35000	4624
18.35833	4451
18.36667	4270
18.37500	4084
18.38333	3895
18.39167	3703
18.40000	3512
18.40833	3321
18.41667	3133
18.42500	2949
18.43333	2769
18.44167	2593
18.45000	2425
18.45833	2262
18.46667	2107
18.47500	1960
18.48333	1821
18.49167	1689
18.50000	1564
18.50833	1448
18.51667	1339
18.52500	1237
18.53333	1142
18.54167	1053
18.55000	972
18.55833	896
18.56667	826
18.57500	761
18.58333	702
18.59167	647
18.60000	596
18.60833	550
18.61667	507
18.62500	468
18.63333	431
18.64167	397
18.65000	367
18.65833	338
18.66667	312
18.67500	289
18.68333	267
18.69167	247
18.70000	228
18.70833	211
18.71667	195
18.72500	180
18.73333	167
18.74167	155
18.75000	143
18.75833	132
18.76667	122
18.77500	113
18.78333	105
18.79167	97
18.80000	90
18.80833	84
18.81667	78
18.82500	73
18.83333	68
18.84167	63
18.85000	59
18.85833	54
18.86667	51
18.87500	47
18.88333	44
18.89167	41
18.90000	38
18.90833	35
18.91667	33
18.92500	30
18.93333	28
18.94167	26
18.95000	24
18.95833	23
18.96667	21
18.97500	19
18.98333	18
18.99167	17
19.00000	16
19.00833	15
19.01667	15
19.02500	14
19.03333	13
19.04167	13
19.05000	12
19.05833	12
19.06667	12
19.07500	11
19.08333	10
19.09167	10
19.10000	10
19.10833	10
19.11667	9
19.12500	9
19.13333	9
19.14167	9
19.15000	8
19.15833	8
19.16667	8
19.17500	8
19.18333	8
19.19167	8
19.20000	8
19.20833	8
19.21667	8
19.22500	8
19.23333	8
19.24167	8
19.25000	8
19.25833	8
19.26667	8
19.27500	8
19.28333	8
19.29167	8
19.30000	8
19.30833	8
19.31667	8
19.32500	8
19.33333	8
19.34167	7
19.35000	6
19.35833	6
19.36667	6
19.37500	6
19.38333	6
19.39167	5
19.40000	5
19.40833	5
19.41667	5
19.42500	5
19.43333	5
19.44167	4
19.45000	4
19.45833	4
19.46667	4
19.47500	5
19.48333	5
19.49167	5
19.50000	5
19.50833	5
19.51667	4
19.52500	4
19.53333	4
19.54167	4
19.55000	4
19.55833	4
19.56667	3
19.57500	3
19.58333	2
19.59167	2
19.60000	1
19.60833	1
19.61667	1
19.62500	1
19.63333	1
19.64167	1
19.65000	1
19.65833	1
19.66667	1
19.67500	1
19.68333	1
19.69167	1
19.70000	1
19.70833	1
19.71667	2
19.72500	2
19.73333	1
19.74167	1
19.75000	1
19.75833	1
19.76667	1
19.77500	1
19.78333	1
19.79167	1
19.80000	1
19.80833	1
19.81667	1
19.82500	2
19.83333	1
19.84167	1
19.85000	1
19.85833	1
19.86667	2
19.87500	2
19.88333	2
19.89167	2
19.90000	2
19.90833	2
19.91667	3
19.92500	3
19.93333	4
19.94167	4
19.95000	4
19.95833	4
19.96667	4
19.97500	4
19.98333	4
19.99167	4
20.00000	4
20.00833	4
20.01667	4
20.02500	4
20.03333	4
20.04167	4
20.05000	4
20.05833	4
20.06667	4
20.07500	4
20.08333	3
20.09167	4
20.10000	4
20.10833	3
20.11667	3
20.12500	3
20.13333	2
20.14167	2
20.15000	3
20.15833	3
20.16667	3
20.17500	3
20.18333	3
20.19167	3
20.20000	3
20.20833	3
20.21667	3
20.22500	3
20.23333	3
20.24167	3
20.25000	3
20.25833	3
20.26667	3
20.27500	3
20.28333	3
20.29167	3
20.30000	2
20.30833	2
20.31667	2
20.32500	2
20.33333	2
20.34167	2
20.35000	2
20.35833	2
20.36667	2
20.37500	2
20.38333	1
20.39167	0
20.40000	0
20.40833	0
20.41667	-0
20.42500	-0
20.43333	-0
20.44167	0
20.45000	0
20.45833	0
20.46667	0
20.47500	0
20.48333	0
20.49167	1
20.50000	1
20.50833	1
20.51667	1
20.52500	1
20.53333	1
20.54167	1
20.55000	1
20.55833	2
20.56667	2
20.57500	2
20.58333	1
20.59167	1
20.60000	1
20.60833	1
20.61667	1
20.62500	1
20.63333	1
20.64167	1
20.65000	1
20.65833	1
20.66667	1
20.67500	1
20.68333	1
20.69167	1
20.70000	1
20.70833	1
20.71667	1
20.72500	0
20.73333	0
20.74167	0
20.75000	1
20.75833	1
20.76667	0
20.77500	0
20.78333	-0
20.79167	-0
20.80000	-1
20.80833	-1
20.81667	-1
20.82500	-1
20.83333	-1
20.84167	-2
20.85000	-2
20.85833	-2
20.86667	-2
20.87500	-2
20.88333	-2
20.89167	-2
20.90000	-2
20.90833	-2
20.91667	-2
20.92500	-3
20.93333	-3
20.94167	-3
20.95000	-3
20.95833	-2
20.96667	-2
20.97500	-2
20.98333	-2
20.99167	-3
21.00000	-3
21.00833	-3
21.01667	-3
21.02500	-2
21.03333	-2
21.04167	-2
21.05000	-2
21.05833	-2
21.06667	-2
21.07500	-2
21.08333	-2
21.09167	-2
21.10000	-2
21.10833	-3
21.11667	-3
21.12500	-3
21.13333	-3
21.14167	-2
21.15000	-2
21.15833	-2
21.16667	-2
21.17500	-2
21.18333	-1
21.19167	-1
21.20000	-2
21.20833	-2
21.21667	-2
21.22500	-2
21.23333	-2
21.24167	-2
21.25000	-1
21.25833	-1
21.26667	-1
21.27500	-1
21.28333	-1
21.29167	-1
21.30000	-1
21.30833	-1
21.31667	-0
21.32500	0
21.33333	0
21.34167	1
21.35000	0
21.35833	0
21.36667	0
21.37500	-0
21.38333	-0
21.39167	0
21.40000	0
21.40833	0
21.41667	0
21.42500	0
21.43333	-0
21.44167	-0
21.45000	-0
21.45833	0
21.46667	0
21.47500	1
21.48333	1
21.49167	1
21.50000	1
21.50833	1
21.51667	0
21.52500	1
21.53333	0
21.54167	0
21.55000	0
21.55833	0
21.56667	1
21.57500	0
21.58333	0
21.59167	0
21.60000	-0
21.60833	-0
21.61667	-0
21.62500	-0
21.63333	-1
21.64167	-1
21.65000	-1
21.65833	-1
21.66667	-1
21.67500	-1
21.68333	-1
21.69167	-1
21.70000	-1
21.70833	-1
21.71667	-1
21.72500	-1
21.73333	-1
21.74167	-0
21.75000	-0
21.75833	-0
21.76667	-0
21.77500	-1
21.78333	-1
21.79167	-1
21.80000	-1
21.80833	-1
21.81667	-1
21.82500	-1
21.83333	-1
21.84167	-1
21.85000	-0
21.85833	-0
21.86667	-0
21.87500	-1
21.88333	-1
21.89167	-1
21.90000	-1
21.90833	-1
21.91667	-2
21.92500	-2
21.93333	-2
21.94167	-2
21.95000	-2
21.95833	-3
21.96667	-2
21.97500	-3
21.98333	-3
21.99167	-3
22.00000	-3
22.00833	-3
22.01667	-3
22.02500	-4
22.03333	-4
22.04167	-5
22.05000	-5
22.05833	-5
22.06667	-6
22.07500	-6
22.08333	-7
22.09167	-8
22.10000	-8
22.10833	-8
22.11667	-8
22.12500	-9
22.13333	-9
22.14167	-10
22.15000	-10
22.15833	-10
22.16667	-11
22.17500	-11
22.18333	-11
22.19167	-12
22.20000	-13
22.20833	-13
22.21667	-15
22.22500	-15
22.23333	-16
22.24167	-17
22.25000	-17
22.25833	-18
22.26667	-19
22.27500	-20
22.28333	-21
22.29167	-22
22.30000	-23
22.30833	-24
22.31667	-26
22.32500	-28
22.33333	-29
22.34167	-31
22.35000	-33
22.35833	-35
22.36667	-37
22.37500	-38
22.38333	-40
22.39167	-41
22.40000	-43
22.40833	-45
22.41667	-47
22.42500	-49
22.43333	-51
22.44167	-54
22.45000	-56
22.45833	-59
22.46667	-61
22.47500	-64
22.48333	-67
22.49167	-70
22.50000	-73
22.50833	-75
22.51667	-78
22.52500	-81
22.53333	-83
22.54167	-86
22.55000	-89
22.55833	-92
22.56667	-96
22.57500	-99
22.58333	-102
22.59167	-105
22.60000	-108
22.60833	-110
22.61667	-113
22.62500	-115
22.63333	-118
22.64167	-120
22.65000	-122
22.65833	-123
22.66667	-125
22.67500	-127
22.68333	-128
22.69167	-129
22.70000	-129
22.70833	-130
22.71667	-131
22.72500	-131
22.73333	-131
22.74167	-130
22.75000	-130
22.75833	-130
22.76667	-129
22.77500	-128
22.78333	-127
22.79167	-126
22.80000	-124
22.80833	-122
22.81667	-120
22.82500	-118
22.83333	-115
22.84167	-113
22.85000	-110
22.85833	-107
22.86667	-104
22.87500	-102
22.88333	-99
22.89167	-95
22.90000	-92
22.90833	-89
22.91667	-86
22.92500	-83
22.93333	-80
22.94167	-77
22.95000	-75
22.95833	-72
22.96667	-69
22.97500	-67
22.98333	-64
22.99167	-62
23.00000	-60
23.00833	-58
23.01667	-56
23.02500	-54
23.03333	-52
23.04167	-50
23.05000	-48
23.05833	-46
23.06667	-44
23.07500	-43
23.08333	-41
23.09167	-39
23.10000	-38
23.10833	-36
23.11667	-35
23.12500	-34
23.13333	-33
23.14167	-32
23.15000	-32
23.15833	-31
23.16667	-30
23.17500	-29
23.18333	-29
23.19167	-29
23.20000	-28
23.20833	-28
23.21667	-27
23.22500	-27
23.23333	-27
23.24167	-26
23.25000	-25
23.25833	-25
23.26667	-24
23.27500	-24
23.28333	-24
23.29167	-23
23.30000	-23
23.30833	-23
23.31667	-23
23.32500	-24
23.33333	-24
23.34167	-24
23.35000	-24
23.35833	-24
23.36667	-24
23.37500	-24
23.38333	-24
23.39167	-24
23.40000	-24
23.40833	-24
23.41667	-24
23.42500	-24
23.43333	-24
23.44167	-24
23.45000	-24
23.45833	-24
23.46667	-24
23.47500	-24
23.48333	-24
23.49167	-24
23.50000	-24
23.50833	-24
23.51667	-24
23.52500	-25
23.53333	-25
23.54167	-25
23.55000	-25
23.55833	-25
23.56667	-26
23.57500	-26
23.58333	-26
23.59167	-26
23.60000	-26
23.60833	-26
23.61667	-26
23.62500	-26
23.63333	-26
23.64167	-26
23.65000	-26
23.65833	-26
23.66667	-26
23.67500	-27
23.68333	-27
23.69167	-27
23.70000	-27
23.70833	-27
23.71667	-27
23.72500	-27
23.73333	-28
23.74167	-28
23.75000	-28
23.75833	-29
23.76667	-30
23.77500	-30
23.78333	-30
23.79167	-29
23.80000	-29
23.80833	-29
23.81667	-29
23.82500	-29
23.83333	-29
23.84167	-29
23.85000	-29
23.85833	-29
23.86667	-29
23.87500	-30
23.88333	-30
23.89167	-31
23.90000	-31
23.90833	-32
23.91667	-32
23.92500	-32
23.93333	-32
23.94167	-33
23.95000	-33
23.95833	-33
23.96667	-34
23.97500	-34
23.98333	-34
23.99167	-35
24.00000	-35
24.00833	-35
24.01667	-36
24.02500	-36
24.03333	-37
24.04167	-37
24.05000	-38
24.05833	-39
24.06667	-39
24.07500	-40
24.08333	-41
24.09167	-41
24.10000	-41
24.10833	-42
24.11667	-43
24.12500	-44
24.13333	-45
24.14167	-46
24.15000	-47
24.15833	-48
24.16667	-48
24.17500	-49
24.18333	-50
24.19167	-51
24.20000	-52
24.20833	-54
24.21667	-55
24.22500	-56
24.23333	-57
24.24167	-58
24.25000	-59
24.25833	-60
24.26667	-60
24.27500	-61
24.28333	-62
24.29167	-63
24.30000	-64
24.30833	-65
24.31667	-66
24.32500	-66
24.33333	-66
24.34167	-67
24.35000	-67
24.35833	-68
24.36667	-68
24.37500	-69
24.38333	-69
24.39167	-69
24.40000	-69
24.40833	-69
24.41667	-69
24.42500	-68
24.43333	-68
24.44167	-67
24.45000	-67
24.45833	-67
24.46667	-66
24.47500	-65
24.48333	-64
24.49167	-64
24.50000	-63
24.50833	-62
24.51667	-61
24.52500	-60
24.53333	-59
24.54167	-58
24.55000	-57
24.55833	-57
24.56667	-56
24.57500	-55
24.58333	-54
24.59167	-52
24.60000	-51
24.60833	-49
24.61667	-47
24.62500	-46
24.63333	-45
24.64167	-43
24.65000	-41
24.65833	-40
24.66667	-39
24.67500	-38
24.68333	-37
24.69167	-36
24.70000	-35
24.70833	-35
24.71667	-34
24.72500	-33
24.73333	-32
24.74167	-31
24.75000	-30
24.75833	-29
24.76667	-28
24.77500	-27
24.78333	-26
24.79167	-25
24.80000	-24
24.80833	-24
24.81667	-23
24.82500	-23
24.83333	-22
24.84167	-21
24.85000	-21
24.85833	-21
24.86667	-20
24.87500	-20
24.88333	-20
24.89167	-19
24.90000	-19
24.90833	-19
24.91667	-18
24.92500	-18
24.93333	-17
24.94167	-16
24.95000	-16
24.95833	-16
24.96667	-15
24.97500	-15
24.98333	-15
24.99167	-15
25.00000	-15
25.00833	-15
25.01667	-15
25.02500	-15
25.03333	-14
25.04167	-14
25.05000	-13
25.05833	-13
25.06667	-13
25.07500	-13
25.08333	-14
25.09167	-14
25.10000	-14
25.10833	-14
25.11667	-13
25.12500	-13
25.13333	-12
25.14167	-12
25.15000	-12
25.15833	-12
25.16667	-11
25.17500	-11
25.18333	-10
25.19167	-10
25.20000	-9
25.20833	-8
25.21667	-8
25.22500	-7
25.23333	-6
25.24167	-5
25.25000	-4
25.25833	-3
25.26667	-1
25.27500	-0
25.28333	2
25.29167	3
25.30000	5
25.30833	6
25.31667	8
25.32500	10
25.33333	12
25.34167	15
25.35000	17
25.35833	20
25.36667	23
25.37500	27
25.38333	31
25.39167	35
25.40000	40
25.40833	46
25.41667	51
25.42500	57
25.43333	63
25.44167	70
25.45000	77
25.45833	84
25.46667	93
25.47500	102
25.48333	111
25.49167	122
25.50000	134
25.50833	146
25.51667	160
25.52500	174
25.53333	189
25.54167	205
25.55000	223
25.55833	242
25.56667	263
25.57500	285
25.58333	309
25.59167	334
25.60000	360
25.60833	389
25.61667	420
25.62500	452
25.63333	487
25.64167	525
25.65000	564
25.65833	606
25.66667	652
25.67500	700
25.68333	752
25.69167	806
25.70000	865
25.70833	927
25.71667	993
25.72500	1063
25.73333	1138
25.74167	1218
25.75000	1303
25.75833	1393
25.76667	1489
25.77500	1592
25.78333	1701
25.79167	1817
25.80000	1940
25.80833	2071
25.81667	2211
25.82500	2359
25.83333	2516
25.84167	2682
25.85000	2860
25.85833	3048
25.86667	3247
25.87500	3458
25.88333	3681
25.89167	3917
25.90000	4166
25.90833	4429
25.91667	4706
25.92500	4998
25.93333	5304
25.94167	5626
25.95000	5963
25.95833	6314
25.96667	6681
25.97500	7062
25.98333	7457
25.99167	7866
26.00000	8288
26.00833	8722
26.01667	9168
26.02500	9624
26.03333	10089
26.04167	10561
26.05000	11039
26.05833	11522
26.06667	12006
26.07500	12490
26.08333	12972
26.09167	13450
26.10000	13922
26.10833	14385
26.11667	14836
26.12500	15273
26.13333	15694
26.14167	16097
26.15000	16478
26.15833	16836
26.16667	17170
26.17500	17476
26.18333	17754
26.19167	18001
26.20000	18216
26.20833	18398
26.21667	18546
26.22500	18660
26.23333	18738
26.24167	18781
26.25000	18788
26.25833	18760
26.26667	18697
26.27500	18599
26.28333	18468
26.29167	18304
26.30000	18109
26.30833	17884
26.31667	17630
26.32500	17350
26.33333	17044
26.34167	16716
26.35000	16366
26.35833	15997
26.36667	15610
26.37500	15207
26.38333	14791
26.39167	14364
26.40000	13927
26.40833	13483
26.41667	13034
26.42500	12580
26.43333	12125
26.44167	11669
26.45000	11214
26.45833	10762
26.46667	10313
26.47500	9871
26.48333	9435
26.49167	9007
26.50000	8588
26.50833	8178
26.51667	7779
26.52500	7390
26.53333	7012
26.54167	6646
26.55000	6293
26.55833	5952
26.56667	5625
26.57500	5310
26.58333	5008
26.59167	4719
26.60000	4443
26.60833	4180
26.61667	3929
26.62500	3690
26.63333	3463
26.64167	3249
26.65000	3045
26.65833	2853
26.66667	2671
26.67500	2500
26.68333	2338
26.69167	2186
26.70000	2043
26.70833	1908
26.71667	1782
26.72500	1664
26.73333	1552
26.74167	1448
26.75000	1350
26.75833	1259
26.76667	1174
26.77500	1094
26.78333	1020
26.79167	951
26.80000	886
26.80833	826
26.81667	769
26.82500	717
26.83333	668
26.84167	623
26.85000	580
26.85833	541
26.86667	504
26.87500	469
26.88333	437
26.89167	407
26.90000	379
26.90833	354
26.91667	330
26.92500	308
26.93333	287
26.94167	267
26.95000	249
26.95833	233
26.96667	217
26.97500	203
26.98333	190
26.99167	178
27.00000	166
27.00833	155
27.01667	145
27.02500	135
27.03333	127
27.04167	119
27.05000	111
27.05833	105
27.06667	98
27.07500	92
27.08333	86
27.09167	81
27.10000	76
27.10833	71
27.11667	67
27.12500	63
27.13333	59
27.14167	55
27.15000	52
27.15833	50
27.16667	47
27.17500	45
27.18333	42
27.19167	40
27.20000	38
27.20833	36
27.21667	34
27.22500	32
27.23333	30
27.24167	29
27.25000	28
27.25833	26
27.26667	24
27.27500	23
27.28333	22
27.29167	22
27.30000	21
27.30833	20
27.31667	19
27.32500	18
27.33333	17
27.34167	16
27.35000	16
27.35833	15
27.36667	14
27.37500	14
27.38333	13
27.39167	12
27.40000	12
27.40833	11
27.41667	10
27.42500	10
27.43333	9
27.44167	8
27.45000	8
27.45833	8
27.46667	7
27.47500	7
27.48333	7
27.49167	6
27.50000	6
27.50833	5
27.51667	5
27.52500	4
27.53333	4
27.54167	4
27.55000	3
27.55833	3
27.56667	3
27.57500	2
27.58333	2
27.59167	1
27.60000	1
27.60833	1
27.61667	1
27.62500	1
27.63333	1
27.64167	0
27.65000	0
27.65833	0
27.66667	-0
27.67500	-0
27.68333	-1
27.69167	-2
27.70000	-2
27.70833	-2
27.71667	-2
27.72500	-2
27.73333	-2
27.74167	-2
27.75000	-3
27.75833	-3
27.76667	-3
27.77500	-3
27.78333	-3
27.79167	-3
27.80000	-3
27.80833	-4
27.81667	-4
27.82500	-4
27.83333	-4
27.84167	-4
27.85000	-4
27.85833	-3
27.86667	-3
27.87500	-3
27.88333	-3
27.89167	-3
27.90000	-3
27.90833	-3
27.91667	-3
27.92500	-3
27.93333	-3
27.94167	-3
27.95000	-3
27.95833	-3
27.96667	-3
27.97500	-2
27.98333	-2
27.99167	-2
28.00000	-2

