R.Time (min)	Intensity
0.00000	-8
0.00833	-8
0.01667	-4
0.02500	-0
0.03333	-0
0.04167	-0
0.05000	-1
0.05833	-1
0.06667	-1
0.07500	-1
0.08333	-1
0.09167	-1
0.10000	-1
0.10833	-0
0.11667	-0
0.12500	-0
0.13333	-1
0.14167	-1
0.15000	-1
0.15833	-1
0.16667	-1
0.17500	-1
0.18333	-1
0.19167	-1
0.20000	-0
0.20833	-0
0.21667	-0
0.22500	-0
0.23333	0
0.24167	1
0.25000	1
0.25833	1
0.26667	1
0.27500	1
0.28333	2
0.29167	2
0.30000	1
0.30833	1
0.31667	1
0.32500	1
0.33333	1
0.34167	1
0.35000	1
0.35833	1
0.36667	1
0.37500	1
0.38333	1
0.39167	0
0.40000	0
0.40833	-0
0.41667	-1
0.42500	-1
0.43333	-0
0.44167	-0
0.45000	0
0.45833	0
0.46667	0
0.47500	0
0.48333	-0
0.49167	-0
0.50000	-0
0.50833	-0
0.51667	-1
0.52500	-1
0.53333	-1
0.54167	-0
0.55000	-0
0.55833	0
0.56667	0
0.57500	1
0.58333	1
0.59167	1
0.60000	1
0.60833	2
0.61667	2
0.62500	2
0.63333	2
0.64167	2
0.65000	2
0.65833	3
0.66667	3
0.67500	3
0.68333	3
0.69167	3
0.70000	3
0.70833	3
0.71667	2
0.72500	2
0.73333	3
0.74167	3
0.75000	2
0.75833	2
0.76667	2
0.77500	1
0.78333	1
0.79167	1
0.80000	0
0.80833	-0
0.81667	-1
0.82500	-1
0.83333	-1
0.84167	-1
0.85000	-1
0.85833	-1
0.86667	-1
0.87500	-2
0.88333	-2
0.89167	-2
0.90000	-1
0.90833	-1
0.91667	-1
0.92500	-1
0.93333	-0
0.94167	0
0.95000	0
0.95833	1
0.96667	1
0.97500	2
0.98333	2
0.99167	2
1.00000	2
1.00833	3
1.01667	3
1.02500	3
1.03333	3
1.04167	3
1.05000	3
1.05833	3
1.06667	3
1.07500	3
1.08333	3
1.09167	3
1.10000	3
1.10833	3
1.11667	3
1.12500	3
1.13333	3
1.14167	3
1.15000	3
1.15833	3
1.16667	3
1.17500	3
1.18333	3
1.19167	3
1.20000	3
1.20833	3
1.21667	3
1.22500	3
1.23333	3
1.24167	3
1.25000	3
1.25833	2
1.26667	3
1.27500	3
1.28333	3
1.29167	3
1.30000	3
1.30833	4
1.31667	4
1.32500	4
1.33333	4
1.34167	3
1.35000	3
1.35833	4
1.36667	4
1.37500	4
1.38333	4
1.39167	5
1.40000	5
1.40833	5
1.41667	5
1.42500	5
1.43333	5
1.44167	5
1.45000	5
1.45833	5
1.46667	4
1.47500	4
1.48333	5
1.49167	5
1.50000	5
1.50833	4
1.51667	4
1.52500	4
1.53333	4
1.54167	4
1.55000	4
1.55833	4
1.56667	4
1.57500	3
1.58333	3
1.59167	3
1.60000	3
1.60833	2
1.61667	2
1.62500	3
1.63333	3
1.64167	3
1.65000	3
1.65833	2
1.66667	2
1.67500	2
1.68333	2
1.69167	2
1.70000	2
1.70833	2
1.71667	3
1.72500	3
1.73333	3
1.74167	4
1.75000	4
1.75833	4
1.76667	4
1.77500	5
1.78333	5
1.79167	5
1.80000	5
1.80833	5
1.81667	6
1.82500	6
1.83333	6
1.84167	6
1.85000	6
1.85833	7
1.86667	7
1.87500	7
1.88333	7
1.89167	7
1.90000	7
1.90833	7
1.91667	8
1.92500	8
1.93333	8
1.94167	8
1.95000	8
1.95833	7
1.96667	7
1.97500	7
1.98333	7
1.99167	8
2.00000	8
2.00833	8
2.01667	8
2.02500	7
2.03333	7
2.04167	7
2.05000	6
2.05833	6
2.06667	6
2.07500	5
2.08333	5
2.09167	5
2.10000	5
2.10833	5
2.11667	4
2.12500	4
2.13333	4
2.14167	4
2.15000	4
2.15833	4
2.16667	4
2.17500	4
2.18333	4
2.19167	4
2.20000	4
2.20833	4
2.21667	4
2.22500	4
2.23333	3
2.24167	4
2.25000	4
2.25833	4
2.26667	4
2.27500	4
2.28333	5
2.29167	5
2.30000	5
2.30833	5
2.31667	6
2.32500	6
2.33333	6
2.34167	7
2.35000	7
2.35833	8
2.36667	9
2.37500	9
2.38333	9
2.39167	9
2.40000	9
2.40833	9
2.41667	9
2.42500	9
2.43333	9
2.44167	9
2.45000	10
2.45833	10
2.46667	10
2.47500	11
2.48333	11
2.49167	11
2.50000	11
2.50833	11
2.51667	11
2.52500	11
2.53333	11
2.54167	10
2.55000	10
2.55833	10
2.56667	10
2.57500	10
2.58333	10
2.59167	9
2.60000	9
2.60833	9
2.61667	9
2.62500	10
2.63333	10
2.64167	10
2.65000	10
2.65833	10
2.66667	9
2.67500	9
2.68333	9
2.69167	9
2.70000	9
2.70833	10
2.71667	10
2.72500	10
2.73333	10
2.74167	10
2.75000	10
2.75833	10
2.76667	10
2.77500	10
2.78333	11
2.79167	11
2.80000	11
2.80833	11
2.81667	11
2.82500	12
2.83333	12
2.84167	12
2.85000	12
2.85833	12
2.86667	12
2.87500	12
2.88333	12
2.89167	13
2.90000	13
2.90833	13
2.91667	13
2.92500	14
2.93333	14
2.94167	14
2.95000	14
2.95833	14
2.96667	14
2.97500	15
2.98333	15
2.99167	14
3.00000	14
3.00833	14
3.01667	14
3.02500	14
3.03333	14
3.04167	14
3.05000	14
3.05833	15
3.06667	15
3.07500	15
3.08333	15
3.09167	15
3.10000	15
3.10833	15
3.11667	15
3.12500	15
3.13333	15
3.14167	15
3.15000	15
3.15833	15
3.16667	15
3.17500	15
3.18333	15
3.19167	15
3.20000	15
3.20833	16
3.21667	16
3.22500	16
3.23333	16
3.24167	16
3.25000	16
3.25833	17
3.26667	17
3.27500	17
3.28333	17
3.29167	18
3.30000	18
3.30833	18
3.31667	19
3.32500	19
3.33333	19
3.34167	19
3.35000	19
3.35833	19
3.36667	20
3.37500	20
3.38333	20
3.39167	20
3.40000	20
3.40833	20
3.41667	19
3.42500	19
3.43333	19
3.44167	18
3.45000	19
3.45833	19
3.46667	19
3.47500	20
3.48333	20
3.49167	20
3.50000	20
3.50833	20
3.51667	20
3.52500	19
3.53333	19
3.54167	19
3.55000	19
3.55833	19
3.56667	19
3.57500	19
3.58333	19
3.59167	19
3.60000	19
3.60833	19
3.61667	18
3.62500	18
3.63333	18
3.64167	18
3.65000	19
3.65833	19
3.66667	19
3.67500	20
3.68333	20
3.69167	21
3.70000	21
3.70833	21
3.71667	21
3.72500	21
3.73333	21
3.74167	21
3.75000	21
3.75833	22
3.76667	22
3.77500	22
3.78333	23
3.79167	23
3.80000	24
3.80833	24
3.81667	24
3.82500	24
3.83333	24
3.84167	24
3.85000	24
3.85833	24
3.86667	24
3.87500	25
3.88333	25
3.89167	25
3.90000	25
3.90833	25
3.91667	25
3.92500	26
3.93333	26
3.94167	26
3.95000	26
3.95833	26
3.96667	26
3.97500	26
3.98333	26
3.99167	27
4.00000	27
4.00833	27
4.01667	27
4.02500	27
4.03333	27
4.04167	27
4.05000	28
4.05833	28
4.06667	28
4.07500	28
4.08333	28
4.09167	29
4.10000	29
4.10833	29
4.11667	29
4.12500	29
4.13333	29
4.14167	29
4.15000	29
4.15833	30
4.16667	30
4.17500	30
4.18333	31
4.19167	31
4.20000	31
4.20833	31
4.21667	31
4.22500	31
4.23333	31
4.24167	31
4.25000	31
4.25833	31
4.26667	31
4.27500	31
4.28333	31
4.29167	31
4.30000	31
4.30833	31
4.31667	31
4.32500	32
4.33333	32
4.34167	33
4.35000	33
4.35833	33
4.36667	33
4.37500	34
4.38333	34
4.39167	35
4.40000	35
4.40833	35
4.41667	35
4.42500	36
4.43333	36
4.44167	36
4.45000	37
4.45833	37
4.46667	37
4.47500	37
4.48333	38
4.49167	38
4.50000	38
4.50833	39
4.51667	39
4.52500	39
4.53333	39
4.54167	39
4.55000	39
4.55833	40
4.56667	40
4.57500	40
4.58333	40
4.59167	40
4.60000	40
4.60833	41
4.61667	41
4.62500	41
4.63333	42
4.64167	42
4.65000	42
4.65833	43
4.66667	42
4.67500	42
4.68333	42
4.69167	42
4.70000	42
4.70833	42
4.71667	43
4.72500	43
4.73333	43
4.74167	43
4.75000	43
4.75833	43
4.76667	43
4.77500	44
4.78333	44
4.79167	44
4.80000	44
4.80833	44
4.81667	44
4.82500	45
4.83333	45
4.84167	45
4.85000	45
4.85833	45
4.86667	46
4.87500	46
4.88333	45
4.89167	46
4.90000	46
4.90833	46
4.91667	46
4.92500	46
4.93333	46
4.94167	46
4.95000	46
4.95833	47
4.96667	47
4.97500	47
4.98333	47
4.99167	47
5.00000	47
5.00833	47
5.01667	47
5.02500	48
5.03333	48
5.04167	48
5.05000	49
5.05833	49
5.06667	50
5.07500	50
5.08333	50
5.09167	50
5.10000	51
5.10833	51
5.11667	51
5.12500	51
5.13333	51
5.14167	51
5.15000	52
5.15833	52
5.16667	52
5.17500	52
5.18333	52
5.19167	52
5.20000	53
5.20833	52
5.21667	52
5.22500	52
5.23333	53
5.24167	53
5.25000	54
5.25833	54
5.26667	55
5.27500	55
5.28333	55
5.29167	56
5.30000	56
5.30833	57
5.31667	58
5.32500	58
5.33333	58
5.34167	58
5.35000	59
5.35833	59
5.36667	59
5.37500	59
5.38333	60
5.39167	60
5.40000	60
5.40833	60
5.41667	61
5.42500	61
5.43333	61
5.44167	61
5.45000	61
5.45833	61
5.46667	61
5.47500	62
5.48333	62
5.49167	62
5.50000	62
5.50833	62
5.51667	62
5.52500	63
5.53333	63
5.54167	64
5.55000	64
5.55833	64
5.56667	65
5.57500	65
5.58333	65
5.59167	66
5.60000	66
5.60833	66
5.61667	67
5.62500	67
5.63333	67
5.64167	67
5.65000	67
5.65833	68
5.66667	68
5.67500	68
5.68333	68
5.69167	69
5.70000	69
5.70833	69
5.71667	69
5.72500	70
5.73333	70
5.74167	71
5.75000	71
5.75833	71
5.76667	72
5.77500	72
5.78333	73
5.79167	73
5.80000	73
5.80833	73
5.81667	74
5.82500	74
5.83333	75
5.84167	75
5.85000	76
5.85833	76
5.86667	76
5.87500	76
5.88333	76
5.89167	77
5.90000	77
5.90833	77
5.91667	77
5.92500	78
5.93333	78
5.94167	79
5.95000	79
5.95833	80
5.96667	80
5.97500	80
5.98333	80
5.99167	81
6.00000	81
6.00833	81
6.01667	82
6.02500	82
6.03333	82
6.04167	82
6.05000	82
6.05833	83
6.06667	83
6.07500	83
6.08333	83
6.09167	83
6.10000	83
6.10833	84
6.11667	84
6.12500	84
6.13333	84
6.14167	84
6.15000	84
6.15833	84
6.16667	85
6.17500	85
6.18333	85
6.19167	85
6.20000	85
6.20833	86
6.21667	86
6.22500	86
6.23333	86
6.24167	86
6.25000	87
6.25833	87
6.26667	87
6.27500	87
6.28333	87
6.29167	87
6.30000	88
6.30833	88
6.31667	88
6.32500	89
6.33333	89
6.34167	89
6.35000	89
6.35833	90
6.36667	90
6.37500	90
6.38333	91
6.39167	91
6.40000	92
6.40833	92
6.41667	92
6.42500	92
6.43333	93
6.44167	93
6.45000	94
6.45833	94
6.46667	94
6.47500	94
6.48333	94
6.49167	95
6.50000	96
6.50833	96
6.51667	97
6.52500	98
6.53333	98
6.54167	98
6.55000	99
6.55833	99
6.56667	99
6.57500	99
6.58333	99
6.59167	99
6.60000	99
6.60833	99
6.61667	100
6.62500	100
6.63333	101
6.64167	101
6.65000	101
6.65833	102
6.66667	102
6.67500	103
6.68333	103
6.69167	104
6.70000	104
6.70833	104
6.71667	104
6.72500	105
6.73333	105
6.74167	106
6.75000	106
6.75833	107
6.76667	107
6.77500	107
6.78333	108
6.79167	108
6.80000	108
6.80833	108
6.81667	108
6.82500	109
6.83333	109
6.84167	109
6.85000	109
6.85833	110
6.86667	110
6.87500	110
6.88333	111
6.89167	111
6.90000	111
6.90833	111
6.91667	112
6.92500	112
6.93333	112
6.94167	112
6.95000	112
6.95833	113
6.96667	113
6.97500	114
6.98333	114
6.99167	115
7.00000	116
7.00833	116
7.01667	116
7.02500	117
7.03333	117
7.04167	117
7.05000	117
7.05833	118
7.06667	118
7.07500	118
7.08333	118
7.09167	119
7.10000	119
7.10833	119
7.11667	119
7.12500	120
7.13333	121
7.14167	121
7.15000	121
7.15833	122
7.16667	122
7.17500	122
7.18333	122
7.19167	122
7.20000	122
7.20833	123
7.21667	123
7.22500	124
7.23333	124
7.24167	124
7.25000	124
7.25833	125
7.26667	125
7.27500	125
7.28333	125
7.29167	126
7.30000	126
7.30833	125
7.31667	125
7.32500	124
7.33333	123
7.34167	120
7.35000	117
7.35833	111
7.36667	103
7.37500	92
7.38333	75
7.39167	51
7.40000	17
7.40833	-29
7.41667	-90
7.42500	-173
7.43333	-280
7.44167	-418
7.45000	-592
7.45833	-805
7.46667	-1060
7.47500	-1359
7.48333	-1701
7.49167	-2081
7.50000	-2494
7.50833	-2928
7.51667	-3372
7.52500	-3812
7.53333	-4234
7.54167	-4622
7.55000	-4963
7.55833	-5246
7.56667	-5463
7.57500	-5607
7.58333	-5676
7.59167	-5672
7.60000	-5598
7.60833	-5460
7.61667	-5267
7.62500	-5028
7.63333	-4753
7.64167	-4451
7.65000	-4134
7.65833	-3808
7.66667	-3483
7.67500	-3164
7.68333	-2857
7.69167	-2565
7.70000	-2292
7.70833	-2039
7.71667	-1808
7.72500	-1598
7.73333	-1408
7.74167	-1239
7.75000	-1088
7.75833	-954
7.76667	-836
7.77500	-732
7.78333	-641
7.79167	-560
7.80000	-488
7.80833	-426
7.81667	-371
7.82500	-322
7.83333	-278
7.84167	-240
7.85000	-205
7.85833	-174
7.86667	-145
7.87500	-120
7.88333	-97
7.89167	-76
7.90000	-57
7.90833	-39
7.91667	-22
7.92500	-7
7.93333	6
7.94167	19
7.95000	31
7.95833	42
7.96667	51
7.97500	60
7.98333	69
7.99167	76
8.00000	83
8.00833	89
8.01667	95
8.02500	101
8.03333	107
8.04167	112
8.05000	116
8.05833	120
8.06667	123
8.07500	127
8.08333	130
8.09167	133
8.10000	136
8.10833	139
8.11667	143
8.12500	146
8.13333	148
8.14167	151
8.15000	154
8.15833	156
8.16667	158
8.17500	160
8.18333	162
8.19167	163
8.20000	165
8.20833	166
8.21667	167
8.22500	168
8.23333	168
8.24167	168
8.25000	169
8.25833	169
8.26667	169
8.27500	168
8.28333	168
8.29167	168
8.30000	168
8.30833	167
8.31667	167
8.32500	167
8.33333	167
8.34167	167
8.35000	166
8.35833	166
8.36667	166
8.37500	166
8.38333	166
8.39167	166
8.40000	165
8.40833	165
8.41667	165
8.42500	164
8.43333	164
8.44167	164
8.45000	164
8.45833	164
8.46667	164
8.47500	164
8.48333	164
8.49167	164
8.50000	165
8.50833	165
8.51667	165
8.52500	165
8.53333	165
8.54167	166
8.55000	166
8.55833	166
8.56667	166
8.57500	167
8.58333	167
8.59167	167
8.60000	168
8.60833	168
8.61667	169
8.62500	169
8.63333	170
8.64167	170
8.65000	170
8.65833	171
8.66667	171
8.67500	172
8.68333	174
8.69167	176
8.70000	178
8.70833	180
8.71667	183
8.72500	186
8.73333	189
8.74167	193
8.75000	198
8.75833	204
8.76667	212
8.77500	222
8.78333	234
8.79167	248
8.80000	267
8.80833	288
8.81667	315
8.82500	347
8.83333	386
8.84167	431
8.85000	484
8.85833	546
8.86667	616
8.87500	695
8.88333	784
8.89167	881
8.90000	987
8.90833	1099
8.91667	1218
8.92500	1340
8.93333	1465
8.94167	1589
8.95000	1711
8.95833	1828
8.96667	1937
8.97500	2036
8.98333	2123
8.99167	2196
9.00000	2253
9.00833	2294
9.01667	2318
9.02500	2324
9.03333	2314
9.04167	2288
9.05000	2247
9.05833	2192
9.06667	2125
9.07500	2048
9.08333	1963
9.09167	1873
9.10000	1777
9.10833	1679
9.11667	1580
9.12500	1482
9.13333	1386
9.14167	1293
9.15000	1203
9.15833	1118
9.16667	1038
9.17500	963
9.18333	894
9.19167	830
9.20000	772
9.20833	718
9.21667	669
9.22500	625
9.23333	585
9.24167	549
9.25000	517
9.25833	487
9.26667	461
9.27500	437
9.28333	416
9.29167	397
9.30000	380
9.30833	365
9.31667	351
9.32500	338
9.33333	327
9.34167	316
9.35000	307
9.35833	298
9.36667	289
9.37500	281
9.38333	274
9.39167	267
9.40000	260
9.40833	255
9.41667	249
9.42500	245
9.43333	240
9.44167	235
9.45000	231
9.45833	227
9.46667	223
9.47500	219
9.48333	216
9.49167	213
9.50000	210
9.50833	208
9.51667	205
9.52500	203
9.53333	201
9.54167	200
9.55000	198
9.55833	197
9.56667	195
9.57500	194
9.58333	192
9.59167	191
9.60000	190
9.60833	189
9.61667	188
9.62500	188
9.63333	187
9.64167	186
9.65000	186
9.65833	186
9.66667	186
9.67500	186
9.68333	186
9.69167	186
9.70000	186
9.70833	186
9.71667	186
9.72500	186
9.73333	186
9.74167	186
9.75000	186
9.75833	186
9.76667	186
9.77500	186
9.78333	186
9.79167	186
9.80000	186
9.80833	186
9.81667	185
9.82500	185
9.83333	185
9.84167	185
9.85000	185
9.85833	185
9.86667	185
9.87500	184
9.88333	184
9.89167	183
9.90000	183
9.90833	183
9.91667	182
9.92500	182
9.93333	182
9.94167	182
9.95000	182
9.95833	182
9.96667	182
9.97500	182
9.98333	182
9.99167	182
10.00000	182
10.00833	182
10.01667	182
10.02500	182
10.03333	182
10.04167	182
10.05000	182
10.05833	182
10.06667	182
10.07500	182
10.08333	182
10.09167	182
10.10000	182
10.10833	182
10.11667	181
10.12500	181
10.13333	181
10.14167	181
10.15000	182
10.15833	182
10.16667	182
10.17500	182
10.18333	182
10.19167	182
10.20000	182
10.20833	182
10.21667	182
10.22500	183
10.23333	182
10.24167	182
10.25000	182
10.25833	182
10.26667	182
10.27500	182
10.28333	182
10.29167	182
10.30000	181
10.30833	181
10.31667	180
10.32500	180
10.33333	180
10.34167	180
10.35000	179
10.35833	179
10.36667	179
10.37500	179
10.38333	178
10.39167	178
10.40000	178
10.40833	178
10.41667	178
10.42500	178
10.43333	178
10.44167	178
10.45000	178
10.45833	179
10.46667	179
10.47500	179
10.48333	179
10.49167	178
10.50000	178
10.50833	178
10.51667	178
10.52500	179
10.53333	179
10.54167	179
10.55000	179
10.55833	178
10.56667	178
10.57500	178
10.58333	178
10.59167	178
10.60000	178
10.60833	179
10.61667	179
10.62500	180
10.63333	180
10.64167	181
10.65000	182
10.65833	183
10.66667	183
10.67500	184
10.68333	185
10.69167	187
10.70000	188
10.70833	191
10.71667	193
10.72500	196
10.73333	199
10.74167	203
10.75000	207
10.75833	212
10.76667	218
10.77500	225
10.78333	233
10.79167	242
10.80000	252
10.80833	264
10.81667	278
10.82500	294
10.83333	314
10.84167	337
10.85000	364
10.85833	395
10.86667	431
10.87500	473
10.88333	521
10.89167	577
10.90000	641
10.90833	713
10.91667	792
10.92500	880
10.93333	976
10.94167	1079
10.95000	1189
10.95833	1304
10.96667	1424
10.97500	1545
10.98333	1667
10.99167	1788
11.00000	1904
11.00833	2015
11.01667	2117
11.02500	2210
11.03333	2290
11.04167	2356
11.05000	2408
11.05833	2443
11.06667	2462
11.07500	2464
11.08333	2451
11.09167	2422
11.10000	2378
11.10833	2321
11.11667	2252
11.12500	2174
11.13333	2087
11.14167	1994
11.15000	1896
11.15833	1795
11.16667	1692
11.17500	1590
11.18333	1489
11.19167	1392
11.20000	1297
11.20833	1207
11.21667	1121
11.22500	1040
11.23333	965
11.24167	895
11.25000	830
11.25833	771
11.26667	716
11.27500	667
11.28333	623
11.29167	582
11.30000	545
11.30833	512
11.31667	482
11.32500	454
11.33333	430
11.34167	407
11.35000	387
11.35833	369
11.36667	353
11.37500	337
11.38333	323
11.39167	310
11.40000	298
11.40833	287
11.41667	277
11.42500	268
11.43333	260
11.44167	252
11.45000	244
11.45833	237
11.46667	231
11.47500	226
11.48333	220
11.49167	215
11.50000	211
11.50833	206
11.51667	202
11.52500	199
11.53333	195
11.54167	192
11.55000	189
11.55833	186
11.56667	184
11.57500	181
11.58333	180
11.59167	178
11.60000	176
11.60833	175
11.61667	173
11.62500	172
11.63333	171
11.64167	170
11.65000	169
11.65833	169
11.66667	168
11.67500	168
11.68333	167
11.69167	166
11.70000	165
11.70833	165
11.71667	164
11.72500	163
11.73333	162
11.74167	160
11.75000	160
11.75833	159
11.76667	159
11.77500	158
11.78333	158
11.79167	157
11.80000	157
11.80833	157
11.81667	156
11.82500	156
11.83333	155
11.84167	155
11.85000	156
11.85833	156
11.86667	156
11.87500	155
11.88333	155
11.89167	156
11.90000	156
11.90833	156
11.91667	157
11.92500	157
11.93333	158
11.94167	158
11.95000	158
11.95833	157
11.96667	157
11.97500	156
11.98333	156
11.99167	155
12.00000	154
12.00833	154
12.01667	153
12.02500	153
12.03333	152
12.04167	151
12.05000	151
12.05833	150
12.06667	149
12.07500	148
12.08333	148
12.09167	147
12.10000	147
12.10833	147
12.11667	147
12.12500	146
12.13333	146
12.14167	146
12.15000	145
12.15833	145
12.16667	145
12.17500	145
12.18333	144
12.19167	144
12.20000	143
12.20833	143
12.21667	143
12.22500	143
12.23333	143
12.24167	142
12.25000	142
12.25833	142
12.26667	141
12.27500	141
12.28333	140
12.29167	140
12.30000	140
12.30833	139
12.31667	139
12.32500	138
12.33333	138
12.34167	138
12.35000	137
12.35833	137
12.36667	136
12.37500	135
12.38333	134
12.39167	134
12.40000	133
12.40833	132
12.41667	132
12.42500	131
12.43333	131
12.44167	131
12.45000	131
12.45833	131
12.46667	130
12.47500	130
12.48333	130
12.49167	130
12.50000	130
12.50833	130
12.51667	130
12.52500	130
12.53333	130
12.54167	130
12.55000	130
12.55833	130
12.56667	130
12.57500	129
12.58333	129
12.59167	129
12.60000	129
12.60833	128
12.61667	128
12.62500	127
12.63333	127
12.64167	127
12.65000	127
12.65833	126
12.66667	126
12.67500	126
12.68333	126
12.69167	125
12.70000	125
12.70833	124
12.71667	124
12.72500	123
12.73333	123
12.74167	122
12.75000	122
12.75833	121
12.76667	120
12.77500	120
12.78333	119
12.79167	118
12.80000	118
12.80833	118
12.81667	117
12.82500	116
12.83333	115
12.84167	115
12.85000	115
12.85833	114
12.86667	114
12.87500	114
12.88333	114
12.89167	113
12.90000	113
12.90833	113
12.91667	112
12.92500	112
12.93333	112
12.94167	112
12.95000	112
12.95833	112
12.96667	111
12.97500	111
12.98333	111
12.99167	110
13.00000	109
13.00833	109
13.01667	108
13.02500	108
13.03333	107
13.04167	107
13.05000	106
13.05833	105
13.06667	105
13.07500	104
13.08333	104
13.09167	104
13.10000	103
13.10833	102
13.11667	102
13.12500	102
13.13333	101
13.14167	100
13.15000	99
13.15833	99
13.16667	99
13.17500	99
13.18333	98
13.19167	98
13.20000	97
13.20833	97
13.21667	96
13.22500	96
13.23333	96
13.24167	96
13.25000	96
13.25833	96
13.26667	95
13.27500	95
13.28333	95
13.29167	95
13.30000	95
13.30833	95
13.31667	95
13.32500	95
13.33333	95
13.34167	95
13.35000	95
13.35833	95
13.36667	94
13.37500	94
13.38333	94
13.39167	94
13.40000	94
13.40833	94
13.41667	93
13.42500	93
13.43333	93
13.44167	93
13.45000	93
13.45833	93
13.46667	93
13.47500	93
13.48333	93
13.49167	93
13.50000	93
13.50833	93
13.51667	93
13.52500	93
13.53333	93
13.54167	93
13.55000	93
13.55833	94
13.56667	94
13.57500	95
13.58333	95
13.59167	96
13.60000	97
13.60833	98
13.61667	99
13.62500	100
13.63333	102
13.64167	103
13.65000	104
13.65833	105
13.66667	106
13.67500	107
13.68333	108
13.69167	108
13.70000	109
13.70833	110
13.71667	110
13.72500	111
13.73333	111
13.74167	111
13.75000	111
13.75833	111
13.76667	110
13.77500	109
13.78333	108
13.79167	107
13.80000	106
13.80833	104
13.81667	103
13.82500	102
13.83333	101
13.84167	100
13.85000	98
13.85833	97
13.86667	96
13.87500	95
13.88333	94
13.89167	92
13.90000	91
13.90833	89
13.91667	87
13.92500	86
13.93333	85
13.94167	83
13.95000	83
13.95833	82
13.96667	81
13.97500	80
13.98333	79
13.99167	78
14.00000	78
14.00833	77
14.01667	77
14.02500	76
14.03333	75
14.04167	75
14.05000	74
14.05833	74
14.06667	73
14.07500	72
14.08333	72
14.09167	71
14.10000	71
14.10833	71
14.11667	71
14.12500	70
14.13333	70
14.14167	69
14.15000	69
14.15833	68
14.16667	68
14.17500	68
14.18333	68
14.19167	68
14.20000	68
14.20833	68
14.21667	68
14.22500	68
14.23333	68
14.24167	67
14.25000	67
14.25833	66
14.26667	66
14.27500	66
14.28333	66
14.29167	66
14.30000	66
14.30833	66
14.31667	66
14.32500	66
14.33333	65
14.34167	65
14.35000	64
14.35833	64
14.36667	64
14.37500	64
14.38333	63
14.39167	63
14.40000	62
14.40833	62
14.41667	62
14.42500	61
14.43333	61
14.44167	61
14.45000	60
14.45833	60
14.46667	59
14.47500	59
14.48333	59
14.49167	59
14.50000	58
14.50833	58
14.51667	57
14.52500	57
14.53333	57
14.54167	56
14.55000	56
14.55833	56
14.56667	55
14.57500	55
14.58333	56
14.59167	55
14.60000	55
14.60833	54
14.61667	54
14.62500	54
14.63333	54
14.64167	54
14.65000	54
14.65833	53
14.66667	53
14.67500	54
14.68333	54
14.69167	55
14.70000	55
14.70833	55
14.71667	55
14.72500	54
14.73333	54
14.74167	54
14.75000	54
14.75833	54
14.76667	54
14.77500	54
14.78333	55
14.79167	55
14.80000	55
14.80833	54
14.81667	54
14.82500	54
14.83333	54
14.84167	54
14.85000	54
14.85833	54
14.86667	54
14.87500	53
14.88333	53
14.89167	53
14.90000	53
14.90833	53
14.91667	53
14.92500	53
14.93333	52
14.94167	53
14.95000	53
14.95833	54
14.96667	54
14.97500	55
14.98333	55
14.99167	56
15.00000	56
15.00833	57
15.01667	57
15.02500	58
15.03333	58
15.04167	59
15.05000	59
15.05833	60
15.06667	62
15.07500	63
15.08333	65
15.09167	66
15.10000	69
15.10833	71
15.11667	74
15.12500	76
15.13333	80
15.14167	84
15.15000	88
15.15833	93
15.16667	98
15.17500	104
15.18333	111
15.19167	118
15.20000	127
15.20833	136
15.21667	146
15.22500	158
15.23333	172
15.24167	186
15.25000	203
15.25833	221
15.26667	241
15.27500	263
15.28333	287
15.29167	313
15.30000	340
15.30833	370
15.31667	401
15.32500	433
15.33333	467
15.34167	502
15.35000	538
15.35833	574
15.36667	610
15.37500	646
15.38333	681
15.39167	715
15.40000	746
15.40833	776
15.41667	802
15.42500	826
15.43333	846
15.44167	863
15.45000	876
15.45833	884
15.46667	889
15.47500	889
15.48333	885
15.49167	877
15.50000	865
15.50833	849
15.51667	830
15.52500	808
15.53333	783
15.54167	755
15.55000	726
15.55833	696
15.56667	664
15.57500	631
15.58333	599
15.59167	566
15.60000	533
15.60833	501
15.61667	470
15.62500	440
15.63333	411
15.64167	384
15.65000	357
15.65833	332
15.66667	309
15.67500	287
15.68333	267
15.69167	247
15.70000	230
15.70833	214
15.71667	198
15.72500	184
15.73333	171
15.74167	160
15.75000	149
15.75833	138
15.76667	129
15.77500	121
15.78333	113
15.79167	107
15.80000	100
15.80833	95
15.81667	89
15.82500	85
15.83333	80
15.84167	77
15.85000	73
15.85833	69
15.86667	67
15.87500	64
15.88333	61
15.89167	59
15.90000	57
15.90833	55
15.91667	53
15.92500	52
15.93333	50
15.94167	49
15.95000	48
15.95833	47
15.96667	46
15.97500	45
15.98333	44
15.99167	43
16.00000	43
16.00833	42
16.01667	41
16.02500	40
16.03333	39
16.04167	38
16.05000	38
16.05833	37
16.06667	37
16.07500	36
16.08333	36
16.09167	36
16.10000	36
16.10833	35
16.11667	35
16.12500	34
16.13333	34
16.14167	34
16.15000	34
16.15833	34
16.16667	34
16.17500	33
16.18333	33
16.19167	33
16.20000	33
16.20833	33
16.21667	32
16.22500	32
16.23333	32
16.24167	31
16.25000	31
16.25833	31
16.26667	31
16.27500	31
16.28333	30
16.29167	30
16.30000	30
16.30833	30
16.31667	30
16.32500	30
16.33333	29
16.34167	29
16.35000	29
16.35833	29
16.36667	29
16.37500	28
16.38333	28
16.39167	28
16.40000	28
16.40833	27
16.41667	27
16.42500	27
16.43333	26
16.44167	26
16.45000	26
16.45833	26
16.46667	26
16.47500	25
16.48333	25
16.49167	24
16.50000	24
16.50833	24
16.51667	24
16.52500	24
16.53333	24
16.54167	24
16.55000	23
16.55833	23
16.56667	22
16.57500	22
16.58333	22
16.59167	22
16.60000	22
16.60833	22
16.61667	22
16.62500	22
16.63333	22
16.64167	23
16.65000	23
16.65833	23
16.66667	23
16.67500	22
16.68333	22
16.69167	22
16.70000	22
16.70833	22
16.71667	22
16.72500	22
16.73333	22
16.74167	22
16.75000	22
16.75833	22
16.76667	22
16.77500	23
16.78333	23
16.79167	23
16.80000	22
16.80833	22
16.81667	22
16.82500	22
16.83333	22
16.84167	22
16.85000	22
16.85833	21
16.86667	21
16.87500	22
16.88333	22
16.89167	21
16.90000	21
16.90833	21
16.91667	21
16.92500	20
16.93333	21
16.94167	21
16.95000	20
16.95833	20
16.96667	20
16.97500	20
16.98333	20
16.99167	20
17.00000	20
17.00833	20
17.01667	20
17.02500	20
17.03333	20
17.04167	20
17.05000	20
17.05833	20
17.06667	20
17.07500	19
17.08333	19
17.09167	19
17.10000	19
17.10833	19
17.11667	19
17.12500	19
17.13333	19
17.14167	19
17.15000	19
17.15833	18
17.16667	18
17.17500	18
17.18333	19
17.19167	19
17.20000	18
17.20833	18
17.21667	18
17.22500	17
17.23333	17
17.24167	17
17.25000	17
17.25833	17
17.26667	17
17.27500	18
17.28333	18
17.29167	18
17.30000	18
17.30833	18
17.31667	18
17.32500	18
17.33333	18
17.34167	18
17.35000	18
17.35833	18
17.36667	18
17.37500	18
17.38333	18
17.39167	18
17.40000	18
17.40833	18
17.41667	18
17.42500	18
17.43333	18
17.44167	18
17.45000	18
17.45833	18
17.46667	19
17.47500	19
17.48333	19
17.49167	19
17.50000	19
17.50833	19
17.51667	18
17.52500	18
17.53333	18
17.54167	18
17.55000	18
17.55833	18
17.56667	17
17.57500	17
17.58333	17
17.59167	17
17.60000	17
17.60833	17
17.61667	17
17.62500	17
17.63333	17
17.64167	16
17.65000	16
17.65833	16
17.66667	16
17.67500	16
17.68333	16
17.69167	16
17.70000	17
17.70833	17
17.71667	18
17.72500	18
17.73333	18
17.74167	18
17.75000	19
17.75833	19
17.76667	19
17.77500	19
17.78333	20
17.79167	20
17.80000	21
17.80833	22
17.81667	23
17.82500	25
17.83333	26
17.84167	27
17.85000	28
17.85833	29
17.86667	31
17.87500	32
17.88333	34
17.89167	36
17.90000	38
17.90833	40
17.91667	43
17.92500	46
17.93333	49
17.94167	54
17.95000	58
17.95833	63
17.96667	68
17.97500	74
17.98333	79
17.99167	86
18.00000	93
18.00833	100
18.01667	108
18.02500	116
18.03333	126
18.04167	137
18.05000	148
18.05833	160
18.06667	173
18.07500	186
18.08333	200
18.09167	216
18.10000	231
18.10833	247
18.11667	264
18.12500	281
18.13333	299
18.14167	316
18.15000	334
18.15833	351
18.16667	368
18.17500	385
18.18333	401
18.19167	415
18.20000	429
18.20833	441
18.21667	452
18.22500	461
18.23333	470
18.24167	477
18.25000	482
18.25833	485
18.26667	487
18.27500	486
18.28333	484
18.29167	481
18.30000	475
18.30833	467
18.31667	458
18.32500	448
18.33333	437
18.34167	424
18.35000	410
18.35833	395
18.36667	379
18.37500	363
18.38333	347
18.39167	330
18.40000	314
18.40833	298
18.41667	281
18.42500	265
18.43333	250
18.44167	235
18.45000	220
18.45833	207
18.46667	193
18.47500	180
18.48333	168
18.49167	156
18.50000	145
18.50833	134
18.51667	125
18.52500	116
18.53333	107
18.54167	100
18.55000	93
18.55833	87
18.56667	81
18.57500	75
18.58333	70
18.59167	65
18.60000	61
18.60833	57
18.61667	53
18.62500	50
18.63333	48
18.64167	45
18.65000	42
18.65833	40
18.66667	38
18.67500	36
18.68333	34
18.69167	32
18.70000	31
18.70833	30
18.71667	29
18.72500	28
18.73333	27
18.74167	26
18.75000	25
18.75833	24
18.76667	24
18.77500	23
18.78333	22
18.79167	22
18.80000	21
18.80833	21
18.81667	20
18.82500	20
18.83333	20
18.84167	20
18.85000	19
18.85833	19
18.86667	19
18.87500	18
18.88333	18
18.89167	17
18.90000	17
18.90833	17
18.91667	17
18.92500	16
18.93333	16
18.94167	16
18.95000	16
18.95833	16
18.96667	15
18.97500	15
18.98333	15
18.99167	15
19.00000	15
19.00833	14
19.01667	14
19.02500	14
19.03333	14
19.04167	14
19.05000	14
19.05833	14
19.06667	14
19.07500	14
19.08333	14
19.09167	14
19.10000	14
19.10833	14
19.11667	14
19.12500	14
19.13333	14
19.14167	14
19.15000	14
19.15833	14
19.16667	14
19.17500	14
19.18333	14
19.19167	14
19.20000	14
19.20833	14
19.21667	14
19.22500	15
19.23333	15
19.24167	15
19.25000	15
19.25833	15
19.26667	15
19.27500	15
19.28333	16
19.29167	16
19.30000	17
19.30833	17
19.31667	17
19.32500	17
19.33333	18
19.34167	18
19.35000	18
19.35833	19
19.36667	19
19.37500	19
19.38333	19
19.39167	20
19.40000	20
19.40833	20
19.41667	20
19.42500	20
19.43333	20
19.44167	20
19.45000	21
19.45833	21
19.46667	22
19.47500	22
19.48333	22
19.49167	22
19.50000	23
19.50833	23
19.51667	23
19.52500	24
19.53333	24
19.54167	24
19.55000	25
19.55833	25
19.56667	25
19.57500	25
19.58333	25
19.59167	25
19.60000	25
19.60833	25
19.61667	25
19.62500	25
19.63333	26
19.64167	26
19.65000	26
19.65833	26
19.66667	26
19.67500	26
19.68333	26
19.69167	26
19.70000	26
19.70833	26
19.71667	26
19.72500	27
19.73333	27
19.74167	27
19.75000	27
19.75833	27
19.76667	27
19.77500	27
19.78333	28
19.79167	28
19.80000	28
19.80833	28
19.81667	28
19.82500	29
19.83333	30
19.84167	30
19.85000	30
19.85833	30
19.86667	30
19.87500	31
19.88333	31
19.89167	31
19.90000	31
19.90833	32
19.91667	32
19.92500	32
19.93333	33
19.94167	33
19.95000	33
19.95833	34
19.96667	34
19.97500	35
19.98333	36
19.99167	36
20.00000	36
20.00833	36
20.01667	37
20.02500	37
20.03333	37
20.04167	37
20.05000	37
20.05833	38
20.06667	38
20.07500	38
20.08333	38
20.09167	39
20.10000	39
20.10833	40
20.11667	40
20.12500	40
20.13333	41
20.14167	41
20.15000	41
20.15833	40
20.16667	40
20.17500	40
20.18333	40
20.19167	40
20.20000	41
20.20833	41
20.21667	41
20.22500	42
20.23333	42
20.24167	42
20.25000	42
20.25833	42
20.26667	43
20.27500	43
20.28333	44
20.29167	44
20.30000	44
20.30833	45
20.31667	45
20.32500	45
20.33333	45
20.34167	45
20.35000	45
20.35833	45
20.36667	45
20.37500	46
20.38333	46
20.39167	46
20.40000	46
20.40833	46
20.41667	46
20.42500	46
20.43333	46
20.44167	46
20.45000	46
20.45833	46
20.46667	46
20.47500	46
20.48333	46
20.49167	46
20.50000	46
20.50833	46
20.51667	45
20.52500	45
20.53333	44
20.54167	44
20.55000	44
20.55833	44
20.56667	43
20.57500	43
20.58333	43
20.59167	43
20.60000	43
20.60833	43
20.61667	43
20.62500	43
20.63333	43
20.64167	44
20.65000	45
20.65833	45
20.66667	45
20.67500	45
20.68333	45
20.69167	45
20.70000	44
20.70833	44
20.71667	44
20.72500	44
20.73333	44
20.74167	44
20.75000	44
20.75833	43
20.76667	43
20.77500	43
20.78333	43
20.79167	43
20.80000	43
20.80833	43
20.81667	43
20.82500	42
20.83333	42
20.84167	42
20.85000	42
20.85833	42
20.86667	41
20.87500	41
20.88333	40
20.89167	40
20.90000	40
20.90833	40
20.91667	40
20.92500	40
20.93333	40
20.94167	40
20.95000	40
20.95833	40
20.96667	40
20.97500	40
20.98333	40
20.99167	40
21.00000	40
21.00833	40
21.01667	40
21.02500	40
21.03333	40
21.04167	40
21.05000	40
21.05833	40
21.06667	40
21.07500	40
21.08333	40
21.09167	39
21.10000	39
21.10833	39
21.11667	38
21.12500	38
21.13333	38
21.14167	37
21.15000	37
21.15833	37
21.16667	37
21.17500	36
21.18333	36
21.19167	36
21.20000	36
21.20833	36
21.21667	36
21.22500	36
21.23333	36
21.24167	36
21.25000	36
21.25833	36
21.26667	36
21.27500	36
21.28333	37
21.29167	37
21.30000	37
21.30833	37
21.31667	37
21.32500	37
21.33333	38
21.34167	38
21.35000	38
21.35833	38
21.36667	37
21.37500	37
21.38333	37
21.39167	37
21.40000	37
21.40833	37
21.41667	37
21.42500	37
21.43333	37
21.44167	37
21.45000	37
21.45833	36
21.46667	36
21.47500	36
21.48333	36
21.49167	36
21.50000	36
21.50833	37
21.51667	37
21.52500	37
21.53333	37
21.54167	38
21.55000	38
21.55833	38
21.56667	38
21.57500	39
21.58333	39
21.59167	39
21.60000	40
21.60833	40
21.61667	41
21.62500	41
21.63333	42
21.64167	42
21.65000	42
21.65833	42
21.66667	41
21.67500	41
21.68333	41
21.69167	41
21.70000	41
21.70833	42
21.71667	42
21.72500	41
21.73333	41
21.74167	41
21.75000	41
21.75833	41
21.76667	41
21.77500	41
21.78333	41
21.79167	41
21.80000	41
21.80833	41
21.81667	41
21.82500	41
21.83333	42
21.84167	42
21.85000	42
21.85833	42
21.86667	42
21.87500	42
21.88333	42
21.89167	43
21.90000	43
21.90833	43
21.91667	43
21.92500	43
21.93333	43
21.94167	44
21.95000	44
21.95833	44
21.96667	44
21.97500	44
21.98333	44
21.99167	44
22.00000	44
22.00833	43
22.01667	43
22.02500	43
22.03333	43
22.04167	42
22.05000	42
22.05833	41
22.06667	41
22.07500	41
22.08333	41
22.09167	41
22.10000	40
22.10833	40
22.11667	40
22.12500	40
22.13333	40
22.14167	40
22.15000	39
22.15833	39
22.16667	39
22.17500	39
22.18333	39
22.19167	39
22.20000	39
22.20833	39
22.21667	39
22.22500	38
22.23333	38
22.24167	38
22.25000	37
22.25833	36
22.26667	35
22.27500	34
22.28333	33
22.29167	32
22.30000	31
22.30833	30
22.31667	28
22.32500	27
22.33333	25
22.34167	24
22.35000	22
22.35833	21
22.36667	19
22.37500	17
22.38333	16
22.39167	14
22.40000	11
22.40833	9
22.41667	7
22.42500	4
22.43333	2
22.44167	-1
22.45000	-4
22.45833	-7
22.46667	-10
22.47500	-13
22.48333	-15
22.49167	-18
22.50000	-20
22.50833	-23
22.51667	-26
22.52500	-29
22.53333	-33
22.54167	-36
22.55000	-39
22.55833	-42
22.56667	-46
22.57500	-49
22.58333	-52
22.59167	-56
22.60000	-59
22.60833	-63
22.61667	-67
22.62500	-70
22.63333	-72
22.64167	-75
22.65000	-77
22.65833	-80
22.66667	-82
22.67500	-83
22.68333	-85
22.69167	-86
22.70000	-87
22.70833	-88
22.71667	-88
22.72500	-89
22.73333	-89
22.74167	-89
22.75000	-88
22.75833	-88
22.76667	-87
22.77500	-86
22.78333	-85
22.79167	-83
22.80000	-82
22.80833	-80
22.81667	-79
22.82500	-77
22.83333	-75
22.84167	-73
22.85000	-71
22.85833	-69
22.86667	-67
22.87500	-65
22.88333	-62
22.89167	-60
22.90000	-58
22.90833	-55
22.91667	-53
22.92500	-50
22.93333	-48
22.94167	-45
22.95000	-43
22.95833	-40
22.96667	-38
22.97500	-35
22.98333	-32
22.99167	-30
23.00000	-27
23.00833	-25
23.01667	-23
23.02500	-21
23.03333	-19
23.04167	-17
23.05000	-15
23.05833	-13
23.06667	-12
23.07500	-10
23.08333	-9
23.09167	-8
23.10000	-7
23.10833	-6
23.11667	-5
23.12500	-5
23.13333	-4
23.14167	-4
23.15000	-3
23.15833	-3
23.16667	-2
23.17500	-1
23.18333	-1
23.19167	-1
23.20000	-0
23.20833	0
23.21667	1
23.22500	1
23.23333	2
23.24167	2
23.25000	3
23.25833	3
23.26667	4
23.27500	4
23.28333	4
23.29167	4
23.30000	5
23.30833	5
23.31667	6
23.32500	6
23.33333	6
23.34167	7
23.35000	7
23.35833	6
23.36667	6
23.37500	6
23.38333	6
23.39167	5
23.40000	5
23.40833	5
23.41667	4
23.42500	4
23.43333	3
23.44167	3
23.45000	3
23.45833	3
23.46667	3
23.47500	3
23.48333	3
23.49167	3
23.50000	3
23.50833	3
23.51667	3
23.52500	3
23.53333	4
23.54167	4
23.55000	5
23.55833	5
23.56667	5
23.57500	5
23.58333	6
23.59167	6
23.60000	6
23.60833	6
23.61667	6
23.62500	6
23.63333	6
23.64167	6
23.65000	5
23.65833	5
23.66667	4
23.67500	4
23.68333	4
23.69167	4
23.70000	4
23.70833	4
23.71667	4
23.72500	3
23.73333	3
23.74167	2
23.75000	2
23.75833	2
23.76667	1
23.77500	1
23.78333	1
23.79167	1
23.80000	1
23.80833	1
23.81667	1
23.82500	1
23.83333	2
23.84167	2
23.85000	2
23.85833	2
23.86667	1
23.87500	1
23.88333	1
23.89167	1
23.90000	0
23.90833	-0
23.91667	-1
23.92500	-1
23.93333	-2
23.94167	-3
23.95000	-3
23.95833	-4
23.96667	-5
23.97500	-6
23.98333	-7
23.99167	-7
24.00000	-8
24.00833	-9
24.01667	-9
24.02500	-10
24.03333	-10
24.04167	-10
24.05000	-11
24.05833	-11
24.06667	-12
24.07500	-12
24.08333	-13
24.09167	-14
24.10000	-15
24.10833	-16
24.11667	-16
24.12500	-16
24.13333	-17
24.14167	-18
24.15000	-19
24.15833	-20
24.16667	-21
24.17500	-22
24.18333	-23
24.19167	-25
24.20000	-26
24.20833	-28
24.21667	-30
24.22500	-31
24.23333	-32
24.24167	-33
24.25000	-34
24.25833	-35
24.26667	-37
24.27500	-38
24.28333	-39
24.29167	-40
24.30000	-40
24.30833	-41
24.31667	-41
24.32500	-42
24.33333	-43
24.34167	-43
24.35000	-44
24.35833	-44
24.36667	-44
24.37500	-44
24.38333	-44
24.39167	-44
24.40000	-45
24.40833	-45
24.41667	-44
24.42500	-44
24.43333	-44
24.44167	-44
24.45000	-43
24.45833	-43
24.46667	-43
24.47500	-43
24.48333	-43
24.49167	-43
24.50000	-42
24.50833	-42
24.51667	-41
24.52500	-40
24.53333	-40
24.54167	-39
24.55000	-38
24.55833	-37
24.56667	-36
24.57500	-36
24.58333	-35
24.59167	-34
24.60000	-33
24.60833	-32
24.61667	-30
24.62500	-29
24.63333	-28
24.64167	-27
24.65000	-26
24.65833	-25
24.66667	-24
24.67500	-23
24.68333	-21
24.69167	-21
24.70000	-20
24.70833	-19
24.71667	-18
24.72500	-17
24.73333	-16
24.74167	-16
24.75000	-15
24.75833	-14
24.76667	-14
24.77500	-13
24.78333	-13
24.79167	-12
24.80000	-12
24.80833	-12
24.81667	-12
24.82500	-11
24.83333	-11
24.84167	-10
24.85000	-10
24.85833	-10
24.86667	-10
24.87500	-10
24.88333	-10
24.89167	-10
24.90000	-9
24.90833	-9
24.91667	-8
24.92500	-8
24.93333	-7
24.94167	-7
24.95000	-7
24.95833	-7
24.96667	-7
24.97500	-7
24.98333	-7
24.99167	-7
25.00000	-7
25.00833	-8
25.01667	-8
25.02500	-8
25.03333	-8
25.04167	-8
25.05000	-9
25.05833	-9
25.06667	-9
25.07500	-9
25.08333	-9
25.09167	-9
25.10000	-10
25.10833	-10
25.11667	-10
25.12500	-11
25.13333	-11
25.14167	-11
25.15000	-11
25.15833	-11
25.16667	-11
25.17500	-11
25.18333	-12
25.19167	-12
25.20000	-12
25.20833	-12
25.21667	-12
25.22500	-12
25.23333	-12
25.24167	-12
25.25000	-12
25.25833	-12
25.26667	-11
25.27500	-11
25.28333	-11
25.29167	-11
25.30000	-11
25.30833	-11
25.31667	-11
25.32500	-10
25.33333	-10
25.34167	-10
25.35000	-9
25.35833	-9
25.36667	-8
25.37500	-7
25.38333	-7
25.39167	-6
25.40000	-6
25.40833	-5
25.41667	-4
25.42500	-3
25.43333	-1
25.44167	-0
25.45000	0
25.45833	2
25.46667	3
25.47500	4
25.48333	5
25.49167	6
25.50000	8
25.50833	9
25.51667	11
25.52500	12
25.53333	13
25.54167	15
25.55000	16
25.55833	18
25.56667	20
25.57500	22
25.58333	24
25.59167	26
25.60000	28
25.60833	31
25.61667	33
25.62500	36
25.63333	39
25.64167	42
25.65000	45
25.65833	49
25.66667	53
25.67500	57
25.68333	61
25.69167	65
25.70000	70
25.70833	75
25.71667	80
25.72500	85
25.73333	91
25.74167	97
25.75000	105
25.75833	113
25.76667	121
25.77500	129
25.78333	137
25.79167	146
25.80000	156
25.80833	167
25.81667	178
25.82500	190
25.83333	202
25.84167	215
25.85000	229
25.85833	244
25.86667	260
25.87500	276
25.88333	293
25.89167	311
25.90000	330
25.90833	351
25.91667	373
25.92500	396
25.93333	420
25.94167	445
25.95000	472
25.95833	499
25.96667	528
25.97500	557
25.98333	588
25.99167	620
26.00000	653
26.00833	687
26.01667	722
26.02500	758
26.03333	795
26.04167	833
26.05000	871
26.05833	909
26.06667	948
26.07500	988
26.08333	1028
26.09167	1067
26.10000	1107
26.10833	1146
26.11667	1185
26.12500	1223
26.13333	1260
26.14167	1296
26.15000	1331
26.15833	1365
26.16667	1397
26.17500	1426
26.18333	1454
26.19167	1480
26.20000	1503
26.20833	1524
26.21667	1542
26.22500	1557
26.23333	1570
26.24167	1580
26.25000	1587
26.25833	1591
26.26667	1592
26.27500	1590
26.28333	1585
26.29167	1576
26.30000	1565
26.30833	1551
26.31667	1534
26.32500	1515
26.33333	1493
26.34167	1468
26.35000	1442
26.35833	1413
26.36667	1383
26.37500	1351
26.38333	1318
26.39167	1283
26.40000	1246
26.40833	1209
26.41667	1171
26.42500	1132
26.43333	1092
26.44167	1052
26.45000	1012
26.45833	972
26.46667	932
26.47500	892
26.48333	853
26.49167	815
26.50000	777
26.50833	740
26.51667	703
26.52500	668
26.53333	634
26.54167	601
26.55000	569
26.55833	538
26.56667	508
26.57500	479
26.58333	452
26.59167	425
26.60000	400
26.60833	376
26.61667	353
26.62500	331
26.63333	310
26.64167	290
26.65000	271
26.65833	253
26.66667	237
26.67500	221
26.68333	207
26.69167	193
26.70000	180
26.70833	169
26.71667	157
26.72500	147
26.73333	137
26.74167	128
26.75000	119
26.75833	111
26.76667	104
26.77500	97
26.78333	90
26.79167	84
26.80000	78
26.80833	73
26.81667	69
26.82500	64
26.83333	60
26.84167	56
26.85000	52
26.85833	48
26.86667	45
26.87500	42
26.88333	39
26.89167	36
26.90000	34
26.90833	32
26.91667	30
26.92500	28
26.93333	27
26.94167	26
26.95000	25
26.95833	23
26.96667	21
26.97500	20
26.98333	19
26.99167	17
27.00000	17
27.00833	16
27.01667	15
27.02500	14
27.03333	14
27.04167	13
27.05000	12
27.05833	12
27.06667	12
27.07500	11
27.08333	11
27.09167	10
27.10000	10
27.10833	9
27.11667	9
27.12500	9
27.13333	9
27.14167	8
27.15000	7
27.15833	7
27.16667	7
27.17500	6
27.18333	6
27.19167	6
27.20000	6
27.20833	6
27.21667	6
27.22500	5
27.23333	5
27.24167	5
27.25000	5
27.25833	4
27.26667	4
27.27500	4
27.28333	4
27.29167	4
27.30000	3
27.30833	3
27.31667	3
27.32500	3
27.33333	3
27.34167	3
27.35000	2
27.35833	2
27.36667	2
27.37500	2
27.38333	2
27.39167	1
27.40000	1
27.40833	1
27.41667	1
27.42500	1
27.43333	1
27.44167	1
27.45000	1
27.45833	1
27.46667	1
27.47500	1
27.48333	0
27.49167	0
27.50000	0
27.50833	0
27.51667	0
27.52500	-0
27.53333	-0
27.54167	-0
27.55000	-0
27.55833	0
27.56667	0
27.57500	0
27.58333	1
27.59167	1
27.60000	1
27.60833	1
27.61667	1
27.62500	1
27.63333	1
27.64167	1
27.65000	0
27.65833	0
27.66667	0
27.67500	0
27.68333	0
27.69167	0
27.70000	0
27.70833	1
27.71667	0
27.72500	-0
27.73333	-0
27.74167	-1
27.75000	-0
27.75833	-0
27.76667	-0
27.77500	-0
27.78333	-0
27.79167	-0
27.80000	-1
27.80833	-1
27.81667	-1
27.82500	-1
27.83333	-1
27.84167	-1
27.85000	-1
27.85833	-1
27.86667	-1
27.87500	-1
27.88333	-1
27.89167	-1
27.90000	-1
27.90833	-1
27.91667	-2
27.92500	-2
27.93333	-2
27.94167	-2
27.95000	-2
27.95833	-2
27.96667	-2
27.97500	-2
27.98333	-2
27.99167	-2
28.00000	-2

