R.Time (min)	Intensity
0.00000	1
0.00833	1
0.01667	0
0.02500	0
0.03333	0
0.04167	0
0.05000	0
0.05833	-0
0.06667	-0
0.07500	-0
0.08333	-0
0.09167	-0
0.10000	-0
0.10833	-1
0.11667	-1
0.12500	-1
0.13333	-0
0.14167	-0
0.15000	-0
0.15833	0
0.16667	1
0.17500	1
0.18333	1
0.19167	1
0.20000	1
0.20833	1
0.21667	1
0.22500	1
0.23333	1
0.24167	1
0.25000	1
0.25833	1
0.26667	1
0.27500	1
0.28333	1
0.29167	1
0.30000	1
0.30833	0
0.31667	0
0.32500	0
0.33333	0
0.34167	1
0.35000	1
0.35833	1
0.36667	1
0.37500	2
0.38333	2
0.39167	2
0.40000	3
0.40833	3
0.41667	3
0.42500	4
0.43333	4
0.44167	4
0.45000	4
0.45833	4
0.46667	4
0.47500	4
0.48333	4
0.49167	4
0.50000	4
0.50833	4
0.51667	4
0.52500	3
0.53333	3
0.54167	4
0.55000	4
0.55833	4
0.56667	4
0.57500	4
0.58333	5
0.59167	5
0.60000	5
0.60833	5
0.61667	5
0.62500	5
0.63333	5
0.64167	5
0.65000	5
0.65833	6
0.66667	6
0.67500	6
0.68333	6
0.69167	6
0.70000	5
0.70833	5
0.71667	5
0.72500	5
0.73333	6
0.74167	6
0.75000	6
0.75833	6
0.76667	6
0.77500	6
0.78333	6
0.79167	6
0.80000	6
0.80833	6
0.81667	6
0.82500	6
0.83333	6
0.84167	5
0.85000	5
0.85833	6
0.86667	6
0.87500	6
0.88333	6
0.89167	6
0.90000	6
0.90833	6
0.91667	6
0.92500	6
0.93333	6
0.94167	6
0.95000	6
0.95833	5
0.96667	5
0.97500	5
0.98333	5
0.99167	5
1.00000	5
1.00833	5
1.01667	5
1.02500	5
1.03333	5
1.04167	5
1.05000	5
1.05833	5
1.06667	4
1.07500	4
1.08333	4
1.09167	4
1.10000	4
1.10833	4
1.11667	4
1.12500	4
1.13333	4
1.14167	4
1.15000	4
1.15833	4
1.16667	4
1.17500	3
1.18333	3
1.19167	3
1.20000	3
1.20833	2
1.21667	3
1.22500	3
1.23333	3
1.24167	4
1.25000	4
1.25833	4
1.26667	5
1.27500	5
1.28333	5
1.29167	5
1.30000	6
1.30833	6
1.31667	6
1.32500	6
1.33333	7
1.34167	7
1.35000	8
1.35833	8
1.36667	8
1.37500	8
1.38333	8
1.39167	7
1.40000	7
1.40833	7
1.41667	7
1.42500	8
1.43333	8
1.44167	8
1.45000	7
1.45833	8
1.46667	8
1.47500	8
1.48333	8
1.49167	8
1.50000	8
1.50833	8
1.51667	8
1.52500	8
1.53333	8
1.54167	8
1.55000	8
1.55833	8
1.56667	8
1.57500	8
1.58333	8
1.59167	8
1.60000	7
1.60833	7
1.61667	8
1.62500	8
1.63333	8
1.64167	8
1.65000	7
1.65833	7
1.66667	7
1.67500	7
1.68333	7
1.69167	6
1.70000	6
1.70833	6
1.71667	5
1.72500	5
1.73333	5
1.74167	5
1.75000	6
1.75833	6
1.76667	6
1.77500	6
1.78333	6
1.79167	6
1.80000	6
1.80833	5
1.81667	5
1.82500	4
1.83333	4
1.84167	3
1.85000	3
1.85833	3
1.86667	3
1.87500	3
1.88333	3
1.89167	3
1.90000	4
1.90833	4
1.91667	4
1.92500	4
1.93333	4
1.94167	4
1.95000	4
1.95833	4
1.96667	4
1.97500	5
1.98333	5
1.99167	5
2.00000	5
2.00833	5
2.01667	5
2.02500	5
2.03333	5
2.04167	5
2.05000	5
2.05833	4
2.06667	4
2.07500	4
2.08333	3
2.09167	3
2.10000	3
2.10833	3
2.11667	3
2.12500	3
2.13333	3
2.14167	3
2.15000	3
2.15833	3
2.16667	3
2.17500	3
2.18333	2
2.19167	2
2.20000	1
2.20833	1
2.21667	1
2.22500	0
2.23333	0
2.24167	0
2.25000	-0
2.25833	-1
2.26667	-2
2.27500	-2
2.28333	-3
2.29167	-3
2.30000	-4
2.30833	-4
2.31667	-4
2.32500	-4
2.33333	-4
2.34167	-4
2.35000	-4
2.35833	-4
2.36667	-4
2.37500	-5
2.38333	-6
2.39167	-6
2.40000	-7
2.40833	-7
2.41667	-8
2.42500	-8
2.43333	-8
2.44167	-8
2.45000	-8
2.45833	-9
2.46667	-9
2.47500	-9
2.48333	-9
2.49167	-9
2.50000	-8
2.50833	-8
2.51667	-8
2.52500	-9
2.53333	-9
2.54167	-9
2.55000	-8
2.55833	-9
2.56667	-9
2.57500	-9
2.58333	-9
2.59167	-9
2.60000	-9
2.60833	-9
2.61667	-9
2.62500	-9
2.63333	-9
2.64167	-9
2.65000	-9
2.65833	-10
2.66667	-9
2.67500	-9
2.68333	-9
2.69167	-10
2.70000	-10
2.70833	-10
2.71667	-10
2.72500	-10
2.73333	-10
2.74167	-10
2.75000	-10
2.75833	-11
2.76667	-11
2.77500	-11
2.78333	-12
2.79167	-12
2.80000	-12
2.80833	-12
2.81667	-12
2.82500	-12
2.83333	-12
2.84167	-12
2.85000	-11
2.85833	-11
2.86667	-10
2.87500	-10
2.88333	-9
2.89167	-9
2.90000	-9
2.90833	-9
2.91667	-10
2.92500	-10
2.93333	-10
2.94167	-10
2.95000	-10
2.95833	-9
2.96667	-9
2.97500	-9
2.98333	-9
2.99167	-8
3.00000	-7
3.00833	-6
3.01667	-5
3.02500	-5
3.03333	-5
3.04167	-5
3.05000	-5
3.05833	-5
3.06667	-4
3.07500	-4
3.08333	-4
3.09167	-4
3.10000	-4
3.10833	-3
3.11667	-2
3.12500	-1
3.13333	-0
3.14167	0
3.15000	1
3.15833	1
3.16667	2
3.17500	3
3.18333	4
3.19167	5
3.20000	5
3.20833	6
3.21667	6
3.22500	7
3.23333	7
3.24167	7
3.25000	8
3.25833	8
3.26667	8
3.27500	9
3.28333	9
3.29167	9
3.30000	10
3.30833	10
3.31667	11
3.32500	11
3.33333	12
3.34167	13
3.35000	13
3.35833	13
3.36667	13
3.37500	14
3.38333	14
3.39167	15
3.40000	15
3.40833	15
3.41667	16
3.42500	17
3.43333	17
3.44167	18
3.45000	18
3.45833	18
3.46667	18
3.47500	18
3.48333	18
3.49167	18
3.50000	18
3.50833	18
3.51667	18
3.52500	19
3.53333	19
3.54167	19
3.55000	20
3.55833	20
3.56667	20
3.57500	20
3.58333	20
3.59167	20
3.60000	20
3.60833	21
3.61667	21
3.62500	21
3.63333	22
3.64167	22
3.65000	23
3.65833	23
3.66667	23
3.67500	24
3.68333	24
3.69167	24
3.70000	24
3.70833	24
3.71667	24
3.72500	25
3.73333	25
3.74167	25
3.75000	25
3.75833	24
3.76667	24
3.77500	24
3.78333	25
3.79167	25
3.80000	25
3.80833	26
3.81667	26
3.82500	26
3.83333	26
3.84167	26
3.85000	26
3.85833	26
3.86667	26
3.87500	26
3.88333	26
3.89167	26
3.90000	26
3.90833	26
3.91667	27
3.92500	27
3.93333	27
3.94167	27
3.95000	27
3.95833	27
3.96667	27
3.97500	28
3.98333	28
3.99167	28
4.00000	29
4.00833	28
4.01667	28
4.02500	27
4.03333	27
4.04167	27
4.05000	27
4.05833	27
4.06667	27
4.07500	27
4.08333	27
4.09167	27
4.10000	27
4.10833	28
4.11667	28
4.12500	28
4.13333	28
4.14167	28
4.15000	28
4.15833	28
4.16667	28
4.17500	27
4.18333	27
4.19167	27
4.20000	26
4.20833	26
4.21667	25
4.22500	25
4.23333	24
4.24167	25
4.25000	25
4.25833	25
4.26667	25
4.27500	24
4.28333	24
4.29167	24
4.30000	23
4.30833	22
4.31667	22
4.32500	22
4.33333	22
4.34167	22
4.35000	22
4.35833	22
4.36667	21
4.37500	21
4.38333	20
4.39167	20
4.40000	20
4.40833	19
4.41667	19
4.42500	20
4.43333	19
4.44167	19
4.45000	18
4.45833	18
4.46667	17
4.47500	17
4.48333	17
4.49167	18
4.50000	18
4.50833	18
4.51667	18
4.52500	19
4.53333	19
4.54167	19
4.55000	19
4.55833	19
4.56667	18
4.57500	18
4.58333	18
4.59167	17
4.60000	17
4.60833	17
4.61667	17
4.62500	17
4.63333	17
4.64167	16
4.65000	16
4.65833	16
4.66667	16
4.67500	16
4.68333	16
4.69167	16
4.70000	17
4.70833	17
4.71667	17
4.72500	17
4.73333	17
4.74167	16
4.75000	16
4.75833	16
4.76667	16
4.77500	17
4.78333	17
4.79167	16
4.80000	16
4.80833	16
4.81667	16
4.82500	16
4.83333	16
4.84167	16
4.85000	16
4.85833	16
4.86667	16
4.87500	16
4.88333	16
4.89167	16
4.90000	17
4.90833	17
4.91667	16
4.92500	16
4.93333	16
4.94167	15
4.95000	15
4.95833	15
4.96667	15
4.97500	15
4.98333	15
4.99167	14
5.00000	14
5.00833	14
5.01667	14
5.02500	13
5.03333	13
5.04167	13
5.05000	12
5.05833	12
5.06667	12
5.07500	11
5.08333	11
5.09167	10
5.10000	10
5.10833	10
5.11667	10
5.12500	10
5.13333	10
5.14167	10
5.15000	10
5.15833	10
5.16667	10
5.17500	10
5.18333	9
5.19167	9
5.20000	9
5.20833	10
5.21667	10
5.22500	10
5.23333	10
5.24167	10
5.25000	9
5.25833	9
5.26667	9
5.27500	9
5.28333	9
5.29167	10
5.30000	10
5.30833	10
5.31667	10
5.32500	10
5.33333	10
5.34167	10
5.35000	11
5.35833	11
5.36667	11
5.37500	11
5.38333	11
5.39167	11
5.40000	11
5.40833	11
5.41667	12
5.42500	12
5.43333	12
5.44167	13
5.45000	13
5.45833	13
5.46667	13
5.47500	13
5.48333	13
5.49167	13
5.50000	13
5.50833	13
5.51667	13
5.52500	13
5.53333	13
5.54167	13
5.55000	13
5.55833	13
5.56667	12
5.57500	12
5.58333	12
5.59167	12
5.60000	12
5.60833	12
5.61667	12
5.62500	11
5.63333	11
5.64167	11
5.65000	11
5.65833	11
5.66667	10
5.67500	10
5.68333	9
5.69167	9
5.70000	9
5.70833	9
5.71667	9
5.72500	9
5.73333	9
5.74167	9
5.75000	8
5.75833	8
5.76667	9
5.77500	9
5.78333	9
5.79167	9
5.80000	10
5.80833	10
5.81667	10
5.82500	10
5.83333	9
5.84167	9
5.85000	8
5.85833	9
5.86667	9
5.87500	9
5.88333	9
5.89167	9
5.90000	9
5.90833	10
5.91667	10
5.92500	10
5.93333	10
5.94167	10
5.95000	10
5.95833	9
5.96667	9
5.97500	9
5.98333	9
5.99167	9
6.00000	9
6.00833	9
6.01667	10
6.02500	10
6.03333	10
6.04167	10
6.05000	10
6.05833	10
6.06667	10
6.07500	10
6.08333	10
6.09167	10
6.10000	10
6.10833	10
6.11667	10
6.12500	10
6.13333	9
6.14167	9
6.15000	10
6.15833	10
6.16667	10
6.17500	10
6.18333	11
6.19167	10
6.20000	10
6.20833	10
6.21667	10
6.22500	10
6.23333	10
6.24167	10
6.25000	10
6.25833	10
6.26667	10
6.27500	10
6.28333	10
6.29167	9
6.30000	9
6.30833	9
6.31667	9
6.32500	9
6.33333	9
6.34167	9
6.35000	8
6.35833	8
6.36667	8
6.37500	7
6.38333	7
6.39167	8
6.40000	7
6.40833	7
6.41667	7
6.42500	7
6.43333	7
6.44167	7
6.45000	7
6.45833	7
6.46667	7
6.47500	7
6.48333	7
6.49167	6
6.50000	6
6.50833	7
6.51667	7
6.52500	7
6.53333	8
6.54167	7
6.55000	7
6.55833	8
6.56667	8
6.57500	8
6.58333	8
6.59167	8
6.60000	8
6.60833	8
6.61667	8
6.62500	8
6.63333	8
6.64167	8
6.65000	8
6.65833	8
6.66667	8
6.67500	8
6.68333	8
6.69167	8
6.70000	8
6.70833	8
6.71667	8
6.72500	8
6.73333	8
6.74167	8
6.75000	8
6.75833	8
6.76667	9
6.77500	9
6.78333	9
6.79167	9
6.80000	9
6.80833	9
6.81667	9
6.82500	9
6.83333	9
6.84167	9
6.85000	8
6.85833	8
6.86667	8
6.87500	9
6.88333	8
6.89167	8
6.90000	8
6.90833	8
6.91667	8
6.92500	9
6.93333	9
6.94167	8
6.95000	8
6.95833	8
6.96667	8
6.97500	8
6.98333	8
6.99167	8
7.00000	8
7.00833	7
7.01667	7
7.02500	7
7.03333	7
7.04167	7
7.05000	7
7.05833	7
7.06667	6
7.07500	6
7.08333	6
7.09167	6
7.10000	6
7.10833	6
7.11667	6
7.12500	5
7.13333	5
7.14167	6
7.15000	6
7.15833	6
7.16667	6
7.17500	6
7.18333	6
7.19167	6
7.20000	6
7.20833	6
7.21667	6
7.22500	6
7.23333	5
7.24167	5
7.25000	5
7.25833	5
7.26667	5
7.27500	5
7.28333	5
7.29167	5
7.30000	5
7.30833	6
7.31667	6
7.32500	7
7.33333	7
7.34167	8
7.35000	8
7.35833	9
7.36667	9
7.37500	9
7.38333	10
7.39167	10
7.40000	10
7.40833	10
7.41667	10
7.42500	10
7.43333	11
7.44167	11
7.45000	11
7.45833	12
7.46667	12
7.47500	12
7.48333	11
7.49167	11
7.50000	11
7.50833	11
7.51667	11
7.52500	11
7.53333	11
7.54167	11
7.55000	10
7.55833	10
7.56667	10
7.57500	9
7.58333	9
7.59167	9
7.60000	9
7.60833	9
7.61667	9
7.62500	9
7.63333	9
7.64167	9
7.65000	9
7.65833	9
7.66667	9
7.67500	9
7.68333	9
7.69167	9
7.70000	9
7.70833	9
7.71667	9
7.72500	9
7.73333	9
7.74167	9
7.75000	10
7.75833	10
7.76667	10
7.77500	11
7.78333	13
7.79167	15
7.80000	17
7.80833	21
7.81667	26
7.82500	32
7.83333	41
7.84167	52
7.85000	66
7.85833	84
7.86667	105
7.87500	131
7.88333	161
7.89167	195
7.90000	233
7.90833	276
7.91667	322
7.92500	370
7.93333	420
7.94167	470
7.95000	520
7.95833	566
7.96667	610
7.97500	650
7.98333	684
7.99167	712
8.00000	733
8.00833	747
8.01667	753
8.02500	752
8.03333	744
8.04167	729
8.05000	709
8.05833	684
8.06667	655
8.07500	622
8.08333	588
8.09167	552
8.10000	515
8.10833	479
8.11667	443
8.12500	408
8.13333	373
8.14167	341
8.15000	311
8.15833	282
8.16667	256
8.17500	232
8.18333	209
8.19167	189
8.20000	171
8.20833	154
8.21667	139
8.22500	125
8.23333	112
8.24167	101
8.25000	90
8.25833	81
8.26667	73
8.27500	65
8.28333	59
8.29167	54
8.30000	49
8.30833	44
8.31667	40
8.32500	37
8.33333	33
8.34167	30
8.35000	28
8.35833	26
8.36667	24
8.37500	22
8.38333	21
8.39167	20
8.40000	18
8.40833	17
8.41667	16
8.42500	15
8.43333	14
8.44167	13
8.45000	13
8.45833	12
8.46667	12
8.47500	12
8.48333	12
8.49167	12
8.50000	12
8.50833	12
8.51667	12
8.52500	12
8.53333	12
8.54167	12
8.55000	13
8.55833	13
8.56667	13
8.57500	13
8.58333	13
8.59167	13
8.60000	14
8.60833	14
8.61667	15
8.62500	15
8.63333	14
8.64167	15
8.65000	15
8.65833	15
8.66667	15
8.67500	15
8.68333	15
8.69167	15
8.70000	15
8.70833	15
8.71667	15
8.72500	15
8.73333	15
8.74167	15
8.75000	15
8.75833	14
8.76667	14
8.77500	14
8.78333	14
8.79167	14
8.80000	14
8.80833	14
8.81667	14
8.82500	14
8.83333	13
8.84167	13
8.85000	13
8.85833	13
8.86667	13
8.87500	13
8.88333	13
8.89167	12
8.90000	13
8.90833	13
8.91667	13
8.92500	13
8.93333	12
8.94167	12
8.95000	12
8.95833	12
8.96667	12
8.97500	13
8.98333	13
8.99167	13
9.00000	14
9.00833	14
9.01667	13
9.02500	13
9.03333	13
9.04167	13
9.05000	13
9.05833	13
9.06667	12
9.07500	12
9.08333	12
9.09167	12
9.10000	12
9.10833	12
9.11667	12
9.12500	12
9.13333	12
9.14167	12
9.15000	12
9.15833	12
9.16667	12
9.17500	11
9.18333	11
9.19167	11
9.20000	11
9.20833	11
9.21667	11
9.22500	11
9.23333	12
9.24167	13
9.25000	13
9.25833	13
9.26667	14
9.27500	14
9.28333	14
9.29167	14
9.30000	14
9.30833	14
9.31667	15
9.32500	15
9.33333	16
9.34167	16
9.35000	17
9.35833	17
9.36667	17
9.37500	18
9.38333	18
9.39167	19
9.40000	19
9.40833	19
9.41667	20
9.42500	20
9.43333	20
9.44167	20
9.45000	20
9.45833	20
9.46667	20
9.47500	21
9.48333	21
9.49167	21
9.50000	21
9.50833	21
9.51667	21
9.52500	21
9.53333	21
9.54167	21
9.55000	21
9.55833	21
9.56667	21
9.57500	21
9.58333	21
9.59167	21
9.60000	21
9.60833	20
9.61667	20
9.62500	20
9.63333	19
9.64167	19
9.65000	19
9.65833	19
9.66667	19
9.67500	18
9.68333	18
9.69167	18
9.70000	18
9.70833	18
9.71667	17
9.72500	17
9.73333	17
9.74167	16
9.75000	16
9.75833	16
9.76667	16
9.77500	15
9.78333	16
9.79167	16
9.80000	16
9.80833	16
9.81667	15
9.82500	15
9.83333	14
9.84167	14
9.85000	14
9.85833	13
9.86667	13
9.87500	13
9.88333	13
9.89167	13
9.90000	13
9.90833	13
9.91667	13
9.92500	12
9.93333	12
9.94167	11
9.95000	11
9.95833	11
9.96667	11
9.97500	11
9.98333	11
9.99167	11
10.00000	11
10.00833	11
10.01667	11
10.02500	11
10.03333	10
10.04167	10
10.05000	10
10.05833	10
10.06667	10
10.07500	11
10.08333	11
10.09167	11
10.10000	11
10.10833	11
10.11667	11
10.12500	11
10.13333	11
10.14167	11
10.15000	11
10.15833	11
10.16667	11
10.17500	11
10.18333	11
10.19167	11
10.20000	11
10.20833	11
10.21667	11
10.22500	11
10.23333	11
10.24167	11
10.25000	12
10.25833	12
10.26667	12
10.27500	12
10.28333	13
10.29167	13
10.30000	13
10.30833	13
10.31667	12
10.32500	12
10.33333	12
10.34167	13
10.35000	14
10.35833	14
10.36667	15
10.37500	15
10.38333	16
10.39167	16
10.40000	16
10.40833	17
10.41667	17
10.42500	17
10.43333	18
10.44167	18
10.45000	18
10.45833	19
10.46667	19
10.47500	19
10.48333	20
10.49167	19
10.50000	19
10.50833	20
10.51667	20
10.52500	20
10.53333	21
10.54167	21
10.55000	21
10.55833	22
10.56667	22
10.57500	22
10.58333	22
10.59167	23
10.60000	23
10.60833	22
10.61667	22
10.62500	23
10.63333	23
10.64167	23
10.65000	23
10.65833	23
10.66667	23
10.67500	22
10.68333	22
10.69167	22
10.70000	22
10.70833	23
10.71667	23
10.72500	23
10.73333	24
10.74167	24
10.75000	24
10.75833	24
10.76667	24
10.77500	25
10.78333	25
10.79167	25
10.80000	25
10.80833	25
10.81667	25
10.82500	25
10.83333	24
10.84167	25
10.85000	25
10.85833	25
10.86667	26
10.87500	26
10.88333	26
10.89167	27
10.90000	27
10.90833	28
10.91667	28
10.92500	28
10.93333	29
10.94167	30
10.95000	31
10.95833	32
10.96667	33
10.97500	34
10.98333	35
10.99167	36
11.00000	37
11.00833	38
11.01667	40
11.02500	42
11.03333	44
11.04167	47
11.05000	50
11.05833	54
11.06667	59
11.07500	65
11.08333	72
11.09167	80
11.10000	90
11.10833	103
11.11667	119
11.12500	137
11.13333	160
11.14167	188
11.15000	221
11.15833	260
11.16667	306
11.17500	360
11.18333	422
11.19167	492
11.20000	572
11.20833	661
11.21667	760
11.22500	869
11.23333	987
11.24167	1114
11.25000	1250
11.25833	1393
11.26667	1542
11.27500	1695
11.28333	1850
11.29167	2006
11.30000	2161
11.30833	2313
11.31667	2459
11.32500	2597
11.33333	2726
11.34167	2844
11.35000	2948
11.35833	3038
11.36667	3113
11.37500	3172
11.38333	3214
11.39167	3239
11.40000	3247
11.40833	3239
11.41667	3216
11.42500	3177
11.43333	3124
11.44167	3059
11.45000	2982
11.45833	2895
11.46667	2799
11.47500	2695
11.48333	2585
11.49167	2471
11.50000	2353
11.50833	2233
11.51667	2113
11.52500	1992
11.53333	1873
11.54167	1756
11.55000	1642
11.55833	1531
11.56667	1424
11.57500	1321
11.58333	1222
11.59167	1128
11.60000	1040
11.60833	956
11.61667	878
11.62500	805
11.63333	737
11.64167	674
11.65000	615
11.65833	561
11.66667	511
11.67500	466
11.68333	423
11.69167	385
11.70000	349
11.70833	317
11.71667	287
11.72500	260
11.73333	237
11.74167	215
11.75000	196
11.75833	178
11.76667	163
11.77500	148
11.78333	136
11.79167	125
11.80000	115
11.80833	106
11.81667	97
11.82500	90
11.83333	83
11.84167	77
11.85000	71
11.85833	66
11.86667	62
11.87500	58
11.88333	55
11.89167	52
11.90000	50
11.90833	48
11.91667	46
11.92500	44
11.93333	43
11.94167	41
11.95000	40
11.95833	39
11.96667	38
11.97500	37
11.98333	36
11.99167	35
12.00000	34
12.00833	34
12.01667	33
12.02500	33
12.03333	33
12.04167	32
12.05000	32
12.05833	32
12.06667	32
12.07500	32
12.08333	31
12.09167	30
12.10000	30
12.10833	30
12.11667	30
12.12500	30
12.13333	30
12.14167	30
12.15000	30
12.15833	30
12.16667	30
12.17500	30
12.18333	30
12.19167	31
12.20000	31
12.20833	31
12.21667	30
12.22500	30
12.23333	30
12.24167	30
12.25000	30
12.25833	30
12.26667	29
12.27500	29
12.28333	29
12.29167	29
12.30000	29
12.30833	29
12.31667	29
12.32500	29
12.33333	29
12.34167	28
12.35000	28
12.35833	28
12.36667	28
12.37500	27
12.38333	27
12.39167	26
12.40000	26
12.40833	25
12.41667	24
12.42500	24
12.43333	24
12.44167	23
12.45000	23
12.45833	23
12.46667	23
12.47500	22
12.48333	22
12.49167	21
12.50000	21
12.50833	21
12.51667	21
12.52500	20
12.53333	20
12.54167	20
12.55000	20
12.55833	20
12.56667	20
12.57500	20
12.58333	20
12.59167	20
12.60000	20
12.60833	20
12.61667	20
12.62500	20
12.63333	20
12.64167	20
12.65000	21
12.65833	21
12.66667	21
12.67500	22
12.68333	22
12.69167	22
12.70000	22
12.70833	23
12.71667	23
12.72500	23
12.73333	24
12.74167	24
12.75000	24
12.75833	24
12.76667	24
12.77500	24
12.78333	24
12.79167	25
12.80000	25
12.80833	26
12.81667	26
12.82500	26
12.83333	26
12.84167	26
12.85000	26
12.85833	27
12.86667	27
12.87500	27
12.88333	27
12.89167	27
12.90000	27
12.90833	27
12.91667	26
12.92500	26
12.93333	26
12.94167	26
12.95000	26
12.95833	26
12.96667	26
12.97500	25
12.98333	25
12.99167	25
13.00000	24
13.00833	24
13.01667	23
13.02500	23
13.03333	22
13.04167	22
13.05000	22
13.05833	22
13.06667	22
13.07500	21
13.08333	21
13.09167	20
13.10000	20
13.10833	20
13.11667	20
13.12500	20
13.13333	20
13.14167	20
13.15000	20
13.15833	20
13.16667	20
13.17500	20
13.18333	19
13.19167	19
13.20000	20
13.20833	20
13.21667	20
13.22500	19
13.23333	19
13.24167	19
13.25000	19
13.25833	19
13.26667	19
13.27500	19
13.28333	19
13.29167	19
13.30000	19
13.30833	19
13.31667	18
13.32500	18
13.33333	18
13.34167	18
13.35000	18
13.35833	18
13.36667	18
13.37500	19
13.38333	19
13.39167	19
13.40000	19
13.40833	19
13.41667	19
13.42500	19
13.43333	19
13.44167	19
13.45000	19
13.45833	19
13.46667	20
13.47500	20
13.48333	20
13.49167	20
13.50000	20
13.50833	20
13.51667	20
13.52500	20
13.53333	20
13.54167	21
13.55000	21
13.55833	21
13.56667	21
13.57500	21
13.58333	21
13.59167	21
13.60000	20
13.60833	20
13.61667	20
13.62500	20
13.63333	20
13.64167	20
13.65000	21
13.65833	21
13.66667	22
13.67500	22
13.68333	22
13.69167	22
13.70000	22
13.70833	23
13.71667	23
13.72500	23
13.73333	23
13.74167	23
13.75000	23
13.75833	24
13.76667	24
13.77500	24
13.78333	24
13.79167	25
13.80000	25
13.80833	25
13.81667	25
13.82500	25
13.83333	25
13.84167	24
13.85000	24
13.85833	24
13.86667	24
13.87500	24
13.88333	23
13.89167	23
13.90000	23
13.90833	23
13.91667	23
13.92500	23
13.93333	24
13.94167	24
13.95000	24
13.95833	24
13.96667	24
13.97500	24
13.98333	24
13.99167	24
14.00000	23
14.00833	23
14.01667	23
14.02500	22
14.03333	23
14.04167	23
14.05000	23
14.05833	23
14.06667	23
14.07500	23
14.08333	22
14.09167	22
14.10000	22
14.10833	22
14.11667	22
14.12500	22
14.13333	22
14.14167	22
14.15000	22
14.15833	22
14.16667	22
14.17500	22
14.18333	22
14.19167	22
14.20000	22
14.20833	22
14.21667	22
14.22500	22
14.23333	22
14.24167	22
14.25000	22
14.25833	22
14.26667	22
14.27500	22
14.28333	22
14.29167	22
14.30000	22
14.30833	22
14.31667	22
14.32500	22
14.33333	23
14.34167	23
14.35000	24
14.35833	24
14.36667	24
14.37500	24
14.38333	25
14.39167	25
14.40000	25
14.40833	25
14.41667	25
14.42500	25
14.43333	25
14.44167	25
14.45000	25
14.45833	26
14.46667	26
14.47500	26
14.48333	26
14.49167	26
14.50000	26
14.50833	25
14.51667	26
14.52500	26
14.53333	26
14.54167	26
14.55000	26
14.55833	26
14.56667	26
14.57500	26
14.58333	26
14.59167	26
14.60000	26
14.60833	26
14.61667	26
14.62500	26
14.63333	26
14.64167	26
14.65000	25
14.65833	24
14.66667	24
14.67500	24
14.68333	24
14.69167	24
14.70000	24
14.70833	24
14.71667	24
14.72500	24
14.73333	23
14.74167	23
14.75000	23
14.75833	22
14.76667	22
14.77500	22
14.78333	22
14.79167	22
14.80000	22
14.80833	22
14.81667	22
14.82500	22
14.83333	22
14.84167	21
14.85000	21
14.85833	22
14.86667	22
14.87500	22
14.88333	22
14.89167	22
14.90000	22
14.90833	22
14.91667	22
14.92500	22
14.93333	22
14.94167	21
14.95000	21
14.95833	21
14.96667	21
14.97500	21
14.98333	21
14.99167	21
15.00000	22
15.00833	22
15.01667	23
15.02500	23
15.03333	24
15.04167	24
15.05000	24
15.05833	24
15.06667	25
15.07500	25
15.08333	26
15.09167	26
15.10000	27
15.10833	27
15.11667	28
15.12500	28
15.13333	29
15.14167	30
15.15000	31
15.15833	32
15.16667	33
15.17500	34
15.18333	36
15.19167	38
15.20000	41
15.20833	44
15.21667	47
15.22500	51
15.23333	55
15.24167	59
15.25000	65
15.25833	72
15.26667	79
15.27500	88
15.28333	98
15.29167	109
15.30000	122
15.30833	138
15.31667	155
15.32500	174
15.33333	195
15.34167	218
15.35000	245
15.35833	274
15.36667	307
15.37500	343
15.38333	381
15.39167	423
15.40000	467
15.40833	513
15.41667	563
15.42500	614
15.43333	667
15.44167	723
15.45000	780
15.45833	838
15.46667	897
15.47500	956
15.48333	1014
15.49167	1071
15.50000	1126
15.50833	1179
15.51667	1229
15.52500	1275
15.53333	1318
15.54167	1357
15.55000	1391
15.55833	1421
15.56667	1445
15.57500	1464
15.58333	1477
15.59167	1485
15.60000	1488
15.60833	1486
15.61667	1479
15.62500	1466
15.63333	1449
15.64167	1427
15.65000	1402
15.65833	1372
15.66667	1339
15.67500	1304
15.68333	1265
15.69167	1225
15.70000	1183
15.70833	1139
15.71667	1093
15.72500	1048
15.73333	1001
15.74167	955
15.75000	909
15.75833	864
15.76667	819
15.77500	775
15.78333	732
15.79167	690
15.80000	649
15.80833	610
15.81667	572
15.82500	536
15.83333	502
15.84167	469
15.85000	438
15.85833	409
15.86667	380
15.87500	353
15.88333	328
15.89167	304
15.90000	283
15.90833	262
15.91667	243
15.92500	226
15.93333	209
15.94167	194
15.95000	179
15.95833	166
15.96667	154
15.97500	143
15.98333	132
15.99167	123
16.00000	114
16.00833	106
16.01667	99
16.02500	92
16.03333	86
16.04167	81
16.05000	76
16.05833	71
16.06667	67
16.07500	64
16.08333	61
16.09167	58
16.10000	55
16.10833	53
16.11667	51
16.12500	49
16.13333	47
16.14167	45
16.15000	43
16.15833	42
16.16667	40
16.17500	39
16.18333	38
16.19167	37
16.20000	36
16.20833	36
16.21667	35
16.22500	34
16.23333	33
16.24167	32
16.25000	32
16.25833	31
16.26667	30
16.27500	29
16.28333	29
16.29167	28
16.30000	28
16.30833	27
16.31667	27
16.32500	27
16.33333	27
16.34167	27
16.35000	27
16.35833	28
16.36667	27
16.37500	27
16.38333	28
16.39167	27
16.40000	27
16.40833	26
16.41667	26
16.42500	26
16.43333	26
16.44167	26
16.45000	26
16.45833	27
16.46667	27
16.47500	27
16.48333	27
16.49167	27
16.50000	28
16.50833	27
16.51667	27
16.52500	27
16.53333	27
16.54167	27
16.55000	27
16.55833	27
16.56667	27
16.57500	27
16.58333	27
16.59167	27
16.60000	28
16.60833	28
16.61667	28
16.62500	28
16.63333	28
16.64167	28
16.65000	28
16.65833	27
16.66667	27
16.67500	26
16.68333	26
16.69167	26
16.70000	26
16.70833	26
16.71667	26
16.72500	26
16.73333	26
16.74167	26
16.75000	26
16.75833	26
16.76667	26
16.77500	26
16.78333	27
16.79167	27
16.80000	27
16.80833	28
16.81667	28
16.82500	28
16.83333	27
16.84167	27
16.85000	27
16.85833	27
16.86667	27
16.87500	26
16.88333	26
16.89167	25
16.90000	25
16.90833	25
16.91667	25
16.92500	25
16.93333	25
16.94167	25
16.95000	26
16.95833	26
16.96667	26
16.97500	26
16.98333	26
16.99167	26
17.00000	26
17.00833	26
17.01667	26
17.02500	26
17.03333	26
17.04167	27
17.05000	27
17.05833	27
17.06667	28
17.07500	28
17.08333	28
17.09167	29
17.10000	29
17.10833	28
17.11667	28
17.12500	28
17.13333	28
17.14167	28
17.15000	28
17.15833	27
17.16667	27
17.17500	28
17.18333	28
17.19167	28
17.20000	28
17.20833	27
17.21667	28
17.22500	27
17.23333	28
17.24167	28
17.25000	27
17.25833	27
17.26667	27
17.27500	27
17.28333	27
17.29167	27
17.30000	28
17.30833	28
17.31667	28
17.32500	28
17.33333	28
17.34167	28
17.35000	28
17.35833	28
17.36667	28
17.37500	28
17.38333	28
17.39167	28
17.40000	28
17.40833	28
17.41667	28
17.42500	28
17.43333	27
17.44167	27
17.45000	28
17.45833	28
17.46667	28
17.47500	28
17.48333	27
17.49167	27
17.50000	27
17.50833	27
17.51667	27
17.52500	26
17.53333	26
17.54167	26
17.55000	27
17.55833	27
17.56667	27
17.57500	27
17.58333	27
17.59167	27
17.60000	27
17.60833	27
17.61667	27
17.62500	28
17.63333	28
17.64167	28
17.65000	28
17.65833	28
17.66667	28
17.67500	28
17.68333	29
17.69167	29
17.70000	29
17.70833	29
17.71667	30
17.72500	30
17.73333	31
17.74167	31
17.75000	32
17.75833	32
17.76667	32
17.77500	33
17.78333	34
17.79167	35
17.80000	36
17.80833	36
17.81667	37
17.82500	39
17.83333	41
17.84167	43
17.85000	45
17.85833	47
17.86667	50
17.87500	53
17.88333	56
17.89167	60
17.90000	64
17.90833	69
17.91667	75
17.92500	81
17.93333	88
17.94167	96
17.95000	104
17.95833	113
17.96667	124
17.97500	136
17.98333	149
17.99167	164
18.00000	179
18.00833	196
18.01667	214
18.02500	233
18.03333	253
18.04167	274
18.05000	296
18.05833	319
18.06667	343
18.07500	368
18.08333	393
18.09167	419
18.10000	445
18.10833	472
18.11667	498
18.12500	524
18.13333	549
18.14167	574
18.15000	598
18.15833	622
18.16667	644
18.17500	664
18.18333	683
18.19167	701
18.20000	716
18.20833	729
18.21667	740
18.22500	749
18.23333	756
18.24167	761
18.25000	764
18.25833	764
18.26667	762
18.27500	759
18.28333	753
18.29167	745
18.30000	736
18.30833	724
18.31667	712
18.32500	698
18.33333	682
18.34167	665
18.35000	647
18.35833	628
18.36667	608
18.37500	588
18.38333	567
18.39167	547
18.40000	525
18.40833	504
18.41667	483
18.42500	462
18.43333	441
18.44167	421
18.45000	401
18.45833	381
18.46667	362
18.47500	343
18.48333	325
18.49167	308
18.50000	291
18.50833	274
18.51667	258
18.52500	243
18.53333	229
18.54167	215
18.55000	202
18.55833	190
18.56667	178
18.57500	167
18.58333	157
18.59167	147
18.60000	138
18.60833	129
18.61667	121
18.62500	113
18.63333	106
18.64167	100
18.65000	94
18.65833	89
18.66667	83
18.67500	78
18.68333	73
18.69167	68
18.70000	64
18.70833	61
18.71667	58
18.72500	55
18.73333	52
18.74167	49
18.75000	47
18.75833	44
18.76667	42
18.77500	41
18.78333	39
18.79167	38
18.80000	36
18.80833	34
18.81667	33
18.82500	32
18.83333	31
18.84167	30
18.85000	30
18.85833	29
18.86667	29
18.87500	28
18.88333	27
18.89167	27
18.90000	26
18.90833	26
18.91667	25
18.92500	24
18.93333	24
18.94167	23
18.95000	23
18.95833	23
18.96667	23
18.97500	23
18.98333	22
18.99167	22
19.00000	22
19.00833	22
19.01667	22
19.02500	22
19.03333	22
19.04167	22
19.05000	22
19.05833	22
19.06667	21
19.07500	21
19.08333	20
19.09167	20
19.10000	20
19.10833	20
19.11667	20
19.12500	19
19.13333	19
19.14167	19
19.15000	19
19.15833	19
19.16667	18
19.17500	18
19.18333	18
19.19167	18
19.20000	18
19.20833	18
19.21667	18
19.22500	18
19.23333	18
19.24167	18
19.25000	18
19.25833	18
19.26667	18
19.27500	18
19.28333	19
19.29167	19
19.30000	19
19.30833	19
19.31667	19
19.32500	19
19.33333	19
19.34167	19
19.35000	20
19.35833	20
19.36667	20
19.37500	20
19.38333	21
19.39167	21
19.40000	21
19.40833	22
19.41667	22
19.42500	23
19.43333	23
19.44167	23
19.45000	23
19.45833	23
19.46667	23
19.47500	23
19.48333	23
19.49167	24
19.50000	24
19.50833	24
19.51667	24
19.52500	25
19.53333	26
19.54167	26
19.55000	27
19.55833	27
19.56667	27
19.57500	27
19.58333	27
19.59167	27
19.60000	28
19.60833	27
19.61667	27
19.62500	28
19.63333	29
19.64167	29
19.65000	30
19.65833	30
19.66667	31
19.67500	32
19.68333	32
19.69167	32
19.70000	31
19.70833	31
19.71667	31
19.72500	32
19.73333	32
19.74167	33
19.75000	33
19.75833	34
19.76667	34
19.77500	34
19.78333	34
19.79167	34
19.80000	35
19.80833	35
19.81667	36
19.82500	36
19.83333	36
19.84167	36
19.85000	36
19.85833	37
19.86667	37
19.87500	37
19.88333	37
19.89167	37
19.90000	37
19.90833	37
19.91667	38
19.92500	38
19.93333	38
19.94167	38
19.95000	38
19.95833	38
19.96667	37
19.97500	37
19.98333	37
19.99167	37
20.00000	37
20.00833	37
20.01667	37
20.02500	37
20.03333	37
20.04167	37
20.05000	37
20.05833	38
20.06667	38
20.07500	38
20.08333	38
20.09167	38
20.10000	39
20.10833	39
20.11667	39
20.12500	39
20.13333	39
20.14167	38
20.15000	39
20.15833	39
20.16667	38
20.17500	38
20.18333	38
20.19167	38
20.20000	38
20.20833	38
20.21667	38
20.22500	38
20.23333	38
20.24167	38
20.25000	38
20.25833	39
20.26667	39
20.27500	39
20.28333	38
20.29167	38
20.30000	38
20.30833	38
20.31667	38
20.32500	37
20.33333	37
20.34167	37
20.35000	37
20.35833	37
20.36667	37
20.37500	37
20.38333	37
20.39167	37
20.40000	37
20.40833	37
20.41667	37
20.42500	37
20.43333	37
20.44167	37
20.45000	37
20.45833	37
20.46667	37
20.47500	36
20.48333	37
20.49167	37
20.50000	37
20.50833	37
20.51667	37
20.52500	37
20.53333	37
20.54167	37
20.55000	37
20.55833	36
20.56667	36
20.57500	36
20.58333	36
20.59167	36
20.60000	36
20.60833	36
20.61667	36
20.62500	37
20.63333	36
20.64167	36
20.65000	36
20.65833	36
20.66667	36
20.67500	36
20.68333	36
20.69167	37
20.70000	36
20.70833	36
20.71667	36
20.72500	35
20.73333	35
20.74167	35
20.75000	35
20.75833	35
20.76667	34
20.77500	34
20.78333	34
20.79167	34
20.80000	34
20.80833	34
20.81667	33
20.82500	33
20.83333	33
20.84167	34
20.85000	34
20.85833	34
20.86667	35
20.87500	35
20.88333	34
20.89167	34
20.90000	34
20.90833	34
20.91667	34
20.92500	34
20.93333	34
20.94167	34
20.95000	34
20.95833	34
20.96667	34
20.97500	34
20.98333	34
20.99167	34
21.00000	34
21.00833	34
21.01667	34
21.02500	33
21.03333	33
21.04167	33
21.05000	33
21.05833	34
21.06667	34
21.07500	34
21.08333	34
21.09167	34
21.10000	34
21.10833	34
21.11667	33
21.12500	33
21.13333	33
21.14167	33
21.15000	33
21.15833	33
21.16667	34
21.17500	34
21.18333	34
21.19167	34
21.20000	34
21.20833	35
21.21667	35
21.22500	35
21.23333	35
21.24167	35
21.25000	35
21.25833	35
21.26667	35
21.27500	34
21.28333	34
21.29167	35
21.30000	35
21.30833	35
21.31667	35
21.32500	34
21.33333	34
21.34167	34
21.35000	33
21.35833	33
21.36667	33
21.37500	33
21.38333	32
21.39167	33
21.40000	33
21.40833	32
21.41667	32
21.42500	31
21.43333	31
21.44167	31
21.45000	31
21.45833	32
21.46667	32
21.47500	33
21.48333	34
21.49167	34
21.50000	34
21.50833	34
21.51667	33
21.52500	33
21.53333	32
21.54167	32
21.55000	32
21.55833	31
21.56667	31
21.57500	31
21.58333	30
21.59167	30
21.60000	30
21.60833	30
21.61667	30
21.62500	30
21.63333	30
21.64167	31
21.65000	30
21.65833	30
21.66667	30
21.67500	30
21.68333	30
21.69167	29
21.70000	29
21.70833	29
21.71667	29
21.72500	29
21.73333	28
21.74167	28
21.75000	28
21.75833	28
21.76667	28
21.77500	27
21.78333	27
21.79167	27
21.80000	27
21.80833	27
21.81667	27
21.82500	27
21.83333	27
21.84167	26
21.85000	25
21.85833	25
21.86667	25
21.87500	24
21.88333	24
21.89167	23
21.90000	22
21.90833	21
21.91667	20
21.92500	19
21.93333	18
21.94167	17
21.95000	16
21.95833	15
21.96667	14
21.97500	12
21.98333	11
21.99167	9
22.00000	7
22.00833	5
22.01667	4
22.02500	1
22.03333	-1
22.04167	-4
22.05000	-6
22.05833	-9
22.06667	-12
22.07500	-15
22.08333	-17
22.09167	-20
22.10000	-23
22.10833	-26
22.11667	-29
22.12500	-32
22.13333	-36
22.14167	-39
22.15000	-42
22.15833	-44
22.16667	-48
22.17500	-51
22.18333	-54
22.19167	-57
22.20000	-59
22.20833	-62
22.21667	-65
22.22500	-68
22.23333	-72
22.24167	-74
22.25000	-76
22.25833	-78
22.26667	-80
22.27500	-82
22.28333	-83
22.29167	-85
22.30000	-85
22.30833	-86
22.31667	-87
22.32500	-88
22.33333	-88
22.34167	-89
22.35000	-89
22.35833	-88
22.36667	-87
22.37500	-87
22.38333	-86
22.39167	-85
22.40000	-83
22.40833	-82
22.41667	-80
22.42500	-79
22.43333	-77
22.44167	-75
22.45000	-73
22.45833	-70
22.46667	-68
22.47500	-65
22.48333	-63
22.49167	-61
22.50000	-58
22.50833	-55
22.51667	-52
22.52500	-49
22.53333	-46
22.54167	-44
22.55000	-41
22.55833	-39
22.56667	-36
22.57500	-33
22.58333	-31
22.59167	-28
22.60000	-26
22.60833	-23
22.61667	-20
22.62500	-18
22.63333	-15
22.64167	-13
22.65000	-11
22.65833	-9
22.66667	-7
22.67500	-5
22.68333	-2
22.69167	-0
22.70000	1
22.70833	3
22.71667	4
22.72500	6
22.73333	7
22.74167	8
22.75000	10
22.75833	12
22.76667	13
22.77500	13
22.78333	14
22.79167	16
22.80000	17
22.80833	18
22.81667	19
22.82500	20
22.83333	20
22.84167	21
22.85000	22
22.85833	22
22.86667	23
22.87500	23
22.88333	23
22.89167	24
22.90000	24
22.90833	24
22.91667	24
22.92500	25
22.93333	25
22.94167	25
22.95000	26
22.95833	26
22.96667	27
22.97500	27
22.98333	28
22.99167	27
23.00000	27
23.00833	27
23.01667	27
23.02500	27
23.03333	27
23.04167	28
23.05000	28
23.05833	28
23.06667	28
23.07500	29
23.08333	29
23.09167	30
23.10000	30
23.10833	30
23.11667	30
23.12500	30
23.13333	30
23.14167	30
23.15000	29
23.15833	29
23.16667	29
23.17500	29
23.18333	29
23.19167	29
23.20000	29
23.20833	29
23.21667	29
23.22500	29
23.23333	30
23.24167	30
23.25000	30
23.25833	31
23.26667	30
23.27500	30
23.28333	30
23.29167	30
23.30000	30
23.30833	30
23.31667	30
23.32500	30
23.33333	29
23.34167	29
23.35000	29
23.35833	29
23.36667	29
23.37500	30
23.38333	30
23.39167	30
23.40000	29
23.40833	29
23.41667	29
23.42500	29
23.43333	29
23.44167	29
23.45000	28
23.45833	28
23.46667	28
23.47500	28
23.48333	28
23.49167	28
23.50000	28
23.50833	28
23.51667	28
23.52500	28
23.53333	28
23.54167	28
23.55000	27
23.55833	27
23.56667	27
23.57500	27
23.58333	26
23.59167	26
23.60000	26
23.60833	25
23.61667	25
23.62500	24
23.63333	24
23.64167	24
23.65000	24
23.65833	23
23.66667	23
23.67500	22
23.68333	21
23.69167	20
23.70000	19
23.70833	18
23.71667	18
23.72500	17
23.73333	16
23.74167	15
23.75000	15
23.75833	14
23.76667	14
23.77500	13
23.78333	13
23.79167	12
23.80000	11
23.80833	11
23.81667	10
23.82500	9
23.83333	7
23.84167	6
23.85000	5
23.85833	4
23.86667	4
23.87500	3
23.88333	2
23.89167	2
23.90000	1
23.90833	0
23.91667	0
23.92500	-0
23.93333	-1
23.94167	-1
23.95000	-1
23.95833	-1
23.96667	-2
23.97500	-2
23.98333	-3
23.99167	-3
24.00000	-3
24.00833	-3
24.01667	-3
24.02500	-3
24.03333	-3
24.04167	-3
24.05000	-2
24.05833	-2
24.06667	-2
24.07500	-2
24.08333	-1
24.09167	-1
24.10000	-0
24.10833	1
24.11667	1
24.12500	2
24.13333	2
24.14167	3
24.15000	4
24.15833	5
24.16667	5
24.17500	6
24.18333	6
24.19167	7
24.20000	8
24.20833	9
24.21667	10
24.22500	11
24.23333	12
24.24167	12
24.25000	12
24.25833	13
24.26667	14
24.27500	14
24.28333	15
24.29167	15
24.30000	15
24.30833	16
24.31667	17
24.32500	17
24.33333	17
24.34167	18
24.35000	19
24.35833	19
24.36667	20
24.37500	21
24.38333	22
24.39167	23
24.40000	23
24.40833	24
24.41667	25
24.42500	25
24.43333	26
24.44167	26
24.45000	25
24.45833	25
24.46667	26
24.47500	26
24.48333	26
24.49167	26
24.50000	26
24.50833	27
24.51667	28
24.52500	28
24.53333	28
24.54167	28
24.55000	29
24.55833	30
24.56667	30
24.57500	30
24.58333	30
24.59167	30
24.60000	30
24.60833	30
24.61667	30
24.62500	30
24.63333	31
24.64167	31
24.65000	31
24.65833	31
24.66667	31
24.67500	31
24.68333	31
24.69167	32
24.70000	32
24.70833	32
24.71667	32
24.72500	32
24.73333	31
24.74167	31
24.75000	31
24.75833	31
24.76667	31
24.77500	31
24.78333	31
24.79167	32
24.80000	32
24.80833	33
24.81667	34
24.82500	34
24.83333	34
24.84167	35
24.85000	35
24.85833	34
24.86667	34
24.87500	35
24.88333	35
24.89167	35
24.90000	36
24.90833	37
24.91667	37
24.92500	37
24.93333	37
24.94167	38
24.95000	38
24.95833	38
24.96667	39
24.97500	39
24.98333	39
24.99167	39
25.00000	39
25.00833	39
25.01667	39
25.02500	39
25.03333	39
25.04167	40
25.05000	40
25.05833	41
25.06667	41
25.07500	40
25.08333	40
25.09167	40
25.10000	40
25.10833	40
25.11667	40
25.12500	40
25.13333	40
25.14167	39
25.15000	39
25.15833	39
25.16667	38
25.17500	38
25.18333	38
25.19167	38
25.20000	38
25.20833	38
25.21667	38
25.22500	38
25.23333	38
25.24167	38
25.25000	38
25.25833	38
25.26667	38
25.27500	37
25.28333	37
25.29167	37
25.30000	37
25.30833	37
25.31667	37
25.32500	38
25.33333	37
25.34167	37
25.35000	37
25.35833	37
25.36667	37
25.37500	36
25.38333	36
25.39167	36
25.40000	37
25.40833	37
25.41667	37
25.42500	38
25.43333	38
25.44167	39
25.45000	39
25.45833	40
25.46667	41
25.47500	42
25.48333	43
25.49167	44
25.50000	46
25.50833	47
25.51667	49
25.52500	51
25.53333	53
25.54167	55
25.55000	58
25.55833	60
25.56667	63
25.57500	66
25.58333	70
25.59167	74
25.60000	78
25.60833	83
25.61667	88
25.62500	94
25.63333	100
25.64167	107
25.65000	114
25.65833	122
25.66667	131
25.67500	140
25.68333	150
25.69167	161
25.70000	173
25.70833	187
25.71667	201
25.72500	216
25.73333	232
25.74167	249
25.75000	268
25.75833	287
25.76667	308
25.77500	330
25.78333	355
25.79167	381
25.80000	408
25.80833	437
25.81667	467
25.82500	499
25.83333	532
25.84167	568
25.85000	604
25.85833	643
25.86667	682
25.87500	724
25.88333	766
25.89167	810
25.90000	856
25.90833	902
25.91667	950
25.92500	999
25.93333	1049
25.94167	1099
25.95000	1150
25.95833	1201
25.96667	1253
25.97500	1304
25.98333	1356
25.99167	1407
26.00000	1458
26.00833	1508
26.01667	1558
26.02500	1606
26.03333	1653
26.04167	1699
26.05000	1743
26.05833	1785
26.06667	1825
26.07500	1862
26.08333	1898
26.09167	1930
26.10000	1960
26.10833	1987
26.11667	2012
26.12500	2033
26.13333	2051
26.14167	2066
26.15000	2078
26.15833	2086
26.16667	2092
26.17500	2095
26.18333	2094
26.19167	2091
26.20000	2084
26.20833	2074
26.21667	2061
26.22500	2046
26.23333	2027
26.24167	2006
26.25000	1983
26.25833	1957
26.26667	1929
26.27500	1899
26.28333	1867
26.29167	1833
26.30000	1797
26.30833	1761
26.31667	1723
26.32500	1684
26.33333	1644
26.34167	1603
26.35000	1561
26.35833	1519
26.36667	1476
26.37500	1433
26.38333	1389
26.39167	1346
26.40000	1303
26.40833	1260
26.41667	1217
26.42500	1175
26.43333	1133
26.44167	1091
26.45000	1051
26.45833	1011
26.46667	972
26.47500	934
26.48333	896
26.49167	860
26.50000	824
26.50833	788
26.51667	754
26.52500	721
26.53333	689
26.54167	659
26.55000	629
26.55833	601
26.56667	574
26.57500	547
26.58333	522
26.59167	498
26.60000	475
26.60833	453
26.61667	431
26.62500	410
26.63333	390
26.64167	371
26.65000	353
26.65833	337
26.66667	321
26.67500	306
26.68333	291
26.69167	277
26.70000	264
26.70833	251
26.71667	239
26.72500	227
26.73333	216
26.74167	206
26.75000	196
26.75833	187
26.76667	179
26.77500	171
26.78333	163
26.79167	156
26.80000	149
26.80833	143
26.81667	138
26.82500	132
26.83333	127
26.84167	123
26.85000	119
26.85833	115
26.86667	110
26.87500	106
26.88333	103
26.89167	100
26.90000	97
26.90833	95
26.91667	93
26.92500	91
26.93333	89
26.94167	86
26.95000	84
26.95833	82
26.96667	80
26.97500	79
26.98333	77
26.99167	76
27.00000	75
27.00833	74
27.01667	74
27.02500	73
27.03333	72
27.04167	71
27.05000	70
27.05833	70
27.06667	69
27.07500	68
27.08333	68
27.09167	67
27.10000	67
27.10833	66
27.11667	66
27.12500	65
27.13333	64
27.14167	64
27.15000	64
27.15833	63
27.16667	63
27.17500	63
27.18333	63
27.19167	63
27.20000	63
27.20833	63
27.21667	62
27.22500	61
27.23333	61
27.24167	60
27.25000	60
27.25833	59
27.26667	59
27.27500	60
27.28333	60
27.29167	60
27.30000	60
27.30833	60
27.31667	60
27.32500	60
27.33333	60
27.34167	59
27.35000	59
27.35833	58
27.36667	58
27.37500	57
27.38333	57
27.39167	57
27.40000	57
27.40833	57
27.41667	57
27.42500	57
27.43333	57
27.44167	56
27.45000	56
27.45833	56
27.46667	56
27.47500	55
27.48333	55
27.49167	55
27.50000	55
27.50833	54
27.51667	54
27.52500	53
27.53333	53
27.54167	53
27.55000	53
27.55833	53
27.56667	53
27.57500	53
27.58333	52
27.59167	52
27.60000	52
27.60833	53
27.61667	52
27.62500	52
27.63333	52
27.64167	52
27.65000	52
27.65833	52
27.66667	51
27.67500	51
27.68333	52
27.69167	52
27.70000	51
27.70833	51
27.71667	50
27.72500	49
27.73333	49
27.74167	48
27.75000	48
27.75833	48
27.76667	48
27.77500	48
27.78333	47
27.79167	47
27.80000	48
27.80833	48
27.81667	49
27.82500	49
27.83333	48
27.84167	48
27.85000	47
27.85833	47
27.86667	46
27.87500	47
27.88333	47
27.89167	47
27.90000	47
27.90833	48
27.91667	48
27.92500	48
27.93333	48
27.94167	48
27.95000	48
27.95833	49
27.96667	49
27.97500	50
27.98333	50
27.99167	50
28.00000	50

