R.Time (min)	Intensity
0.00000	-4
0.00833	-4
0.01667	-0
0.02500	-0
0.03333	-0
0.04167	-0
0.05000	-1
0.05833	-1
0.06667	-1
0.07500	-1
0.08333	-1
0.09167	-0
0.10000	-0
0.10833	-1
0.11667	-1
0.12500	-1
0.13333	-2
0.14167	-2
0.15000	-2
0.15833	-2
0.16667	-2
0.17500	-1
0.18333	-0
0.19167	0
0.20000	1
0.20833	1
0.21667	1
0.22500	0
0.23333	-0
0.24167	-0
0.25000	-0
0.25833	-0
0.26667	-0
0.27500	-1
0.28333	-1
0.29167	-1
0.30000	-1
0.30833	-1
0.31667	-1
0.32500	-1
0.33333	-0
0.34167	-0
0.35000	0
0.35833	-0
0.36667	-1
0.37500	-1
0.38333	-1
0.39167	-0
0.40000	-0
0.40833	-1
0.41667	-1
0.42500	-1
0.43333	-1
0.44167	-1
0.45000	-1
0.45833	-1
0.46667	-1
0.47500	-1
0.48333	-1
0.49167	-1
0.50000	-1
0.50833	-1
0.51667	-1
0.52500	-1
0.53333	-1
0.54167	-1
0.55000	-0
0.55833	0
0.56667	1
0.57500	1
0.58333	1
0.59167	1
0.60000	1
0.60833	1
0.61667	1
0.62500	1
0.63333	1
0.64167	2
0.65000	2
0.65833	3
0.66667	3
0.67500	3
0.68333	3
0.69167	3
0.70000	3
0.70833	3
0.71667	2
0.72500	2
0.73333	3
0.74167	3
0.75000	4
0.75833	5
0.76667	5
0.77500	5
0.78333	4
0.79167	4
0.80000	3
0.80833	3
0.81667	3
0.82500	3
0.83333	3
0.84167	3
0.85000	2
0.85833	2
0.86667	2
0.87500	1
0.88333	1
0.89167	1
0.90000	1
0.90833	0
0.91667	1
0.92500	1
0.93333	1
0.94167	2
0.95000	2
0.95833	2
0.96667	2
0.97500	2
0.98333	2
0.99167	2
1.00000	1
1.00833	1
1.01667	1
1.02500	2
1.03333	1
1.04167	0
1.05000	-0
1.05833	0
1.06667	0
1.07500	0
1.08333	-0
1.09167	-0
1.10000	-0
1.10833	-1
1.11667	-1
1.12500	-1
1.13333	-1
1.14167	-0
1.15000	0
1.15833	0
1.16667	1
1.17500	1
1.18333	1
1.19167	2
1.20000	2
1.20833	2
1.21667	2
1.22500	3
1.23333	3
1.24167	3
1.25000	3
1.25833	2
1.26667	2
1.27500	3
1.28333	3
1.29167	3
1.30000	3
1.30833	4
1.31667	3
1.32500	3
1.33333	4
1.34167	4
1.35000	4
1.35833	4
1.36667	3
1.37500	3
1.38333	3
1.39167	2
1.40000	3
1.40833	3
1.41667	4
1.42500	4
1.43333	4
1.44167	4
1.45000	4
1.45833	4
1.46667	4
1.47500	5
1.48333	5
1.49167	5
1.50000	5
1.50833	5
1.51667	5
1.52500	5
1.53333	6
1.54167	6
1.55000	6
1.55833	6
1.56667	6
1.57500	6
1.58333	6
1.59167	6
1.60000	6
1.60833	6
1.61667	5
1.62500	5
1.63333	5
1.64167	5
1.65000	5
1.65833	4
1.66667	3
1.67500	3
1.68333	3
1.69167	2
1.70000	3
1.70833	3
1.71667	4
1.72500	4
1.73333	4
1.74167	4
1.75000	4
1.75833	4
1.76667	4
1.77500	3
1.78333	3
1.79167	3
1.80000	3
1.80833	3
1.81667	3
1.82500	4
1.83333	4
1.84167	4
1.85000	4
1.85833	4
1.86667	4
1.87500	3
1.88333	3
1.89167	2
1.90000	2
1.90833	2
1.91667	2
1.92500	3
1.93333	3
1.94167	4
1.95000	4
1.95833	4
1.96667	4
1.97500	3
1.98333	3
1.99167	4
2.00000	4
2.00833	5
2.01667	5
2.02500	5
2.03333	5
2.04167	6
2.05000	6
2.05833	6
2.06667	6
2.07500	6
2.08333	6
2.09167	6
2.10000	6
2.10833	6
2.11667	6
2.12500	6
2.13333	6
2.14167	6
2.15000	6
2.15833	7
2.16667	7
2.17500	7
2.18333	6
2.19167	6
2.20000	6
2.20833	6
2.21667	6
2.22500	6
2.23333	6
2.24167	6
2.25000	6
2.25833	6
2.26667	6
2.27500	6
2.28333	6
2.29167	6
2.30000	6
2.30833	7
2.31667	7
2.32500	8
2.33333	9
2.34167	9
2.35000	9
2.35833	8
2.36667	7
2.37500	6
2.38333	6
2.39167	5
2.40000	5
2.40833	5
2.41667	5
2.42500	5
2.43333	6
2.44167	6
2.45000	6
2.45833	6
2.46667	5
2.47500	5
2.48333	5
2.49167	5
2.50000	5
2.50833	4
2.51667	4
2.52500	4
2.53333	4
2.54167	4
2.55000	4
2.55833	4
2.56667	4
2.57500	4
2.58333	4
2.59167	4
2.60000	4
2.60833	4
2.61667	4
2.62500	3
2.63333	3
2.64167	3
2.65000	3
2.65833	3
2.66667	2
2.67500	2
2.68333	3
2.69167	3
2.70000	3
2.70833	3
2.71667	3
2.72500	4
2.73333	4
2.74167	4
2.75000	4
2.75833	4
2.76667	4
2.77500	4
2.78333	3
2.79167	3
2.80000	3
2.80833	2
2.81667	2
2.82500	3
2.83333	3
2.84167	3
2.85000	3
2.85833	3
2.86667	3
2.87500	3
2.88333	4
2.89167	4
2.90000	4
2.90833	4
2.91667	4
2.92500	2
2.93333	2
2.94167	1
2.95000	2
2.95833	2
2.96667	2
2.97500	3
2.98333	3
2.99167	3
3.00000	3
3.00833	4
3.01667	4
3.02500	4
3.03333	4
3.04167	4
3.05000	4
3.05833	4
3.06667	4
3.07500	4
3.08333	4
3.09167	4
3.10000	4
3.10833	4
3.11667	4
3.12500	4
3.13333	4
3.14167	4
3.15000	4
3.15833	4
3.16667	4
3.17500	4
3.18333	4
3.19167	4
3.20000	4
3.20833	4
3.21667	4
3.22500	4
3.23333	4
3.24167	4
3.25000	4
3.25833	4
3.26667	4
3.27500	4
3.28333	4
3.29167	4
3.30000	4
3.30833	4
3.31667	4
3.32500	4
3.33333	4
3.34167	4
3.35000	4
3.35833	4
3.36667	4
3.37500	4
3.38333	4
3.39167	4
3.40000	4
3.40833	4
3.41667	4
3.42500	4
3.43333	5
3.44167	5
3.45000	6
3.45833	6
3.46667	6
3.47500	6
3.48333	6
3.49167	6
3.50000	6
3.50833	6
3.51667	6
3.52500	6
3.53333	6
3.54167	7
3.55000	7
3.55833	7
3.56667	7
3.57500	7
3.58333	8
3.59167	8
3.60000	8
3.60833	8
3.61667	8
3.62500	8
3.63333	8
3.64167	9
3.65000	9
3.65833	9
3.66667	9
3.67500	9
3.68333	9
3.69167	9
3.70000	9
3.70833	9
3.71667	8
3.72500	8
3.73333	8
3.74167	8
3.75000	8
3.75833	8
3.76667	8
3.77500	8
3.78333	8
3.79167	8
3.80000	8
3.80833	9
3.81667	9
3.82500	9
3.83333	10
3.84167	9
3.85000	9
3.85833	9
3.86667	10
3.87500	10
3.88333	10
3.89167	10
3.90000	10
3.90833	10
3.91667	10
3.92500	9
3.93333	9
3.94167	9
3.95000	9
3.95833	9
3.96667	10
3.97500	9
3.98333	9
3.99167	9
4.00000	8
4.00833	8
4.01667	8
4.02500	8
4.03333	8
4.04167	8
4.05000	9
4.05833	9
4.06667	9
4.07500	9
4.08333	9
4.09167	9
4.10000	9
4.10833	9
4.11667	9
4.12500	9
4.13333	9
4.14167	10
4.15000	9
4.15833	9
4.16667	9
4.17500	8
4.18333	8
4.19167	9
4.20000	9
4.20833	9
4.21667	8
4.22500	9
4.23333	9
4.24167	8
4.25000	9
4.25833	8
4.26667	8
4.27500	8
4.28333	8
4.29167	7
4.30000	7
4.30833	7
4.31667	6
4.32500	6
4.33333	6
4.34167	6
4.35000	6
4.35833	7
4.36667	6
4.37500	6
4.38333	6
4.39167	6
4.40000	6
4.40833	6
4.41667	6
4.42500	6
4.43333	6
4.44167	6
4.45000	6
4.45833	6
4.46667	6
4.47500	6
4.48333	6
4.49167	6
4.50000	6
4.50833	6
4.51667	6
4.52500	6
4.53333	6
4.54167	6
4.55000	6
4.55833	6
4.56667	6
4.57500	6
4.58333	6
4.59167	6
4.60000	6
4.60833	6
4.61667	6
4.62500	6
4.63333	5
4.64167	5
4.65000	5
4.65833	5
4.66667	5
4.67500	5
4.68333	6
4.69167	5
4.70000	5
4.70833	5
4.71667	6
4.72500	6
4.73333	5
4.74167	5
4.75000	5
4.75833	4
4.76667	5
4.77500	5
4.78333	5
4.79167	5
4.80000	5
4.80833	4
4.81667	4
4.82500	5
4.83333	5
4.84167	5
4.85000	5
4.85833	5
4.86667	4
4.87500	4
4.88333	4
4.89167	4
4.90000	4
4.90833	4
4.91667	3
4.92500	3
4.93333	3
4.94167	3
4.95000	3
4.95833	3
4.96667	3
4.97500	3
4.98333	4
4.99167	4
5.00000	5
5.00833	4
5.01667	4
5.02500	4
5.03333	4
5.04167	4
5.05000	4
5.05833	4
5.06667	4
5.07500	4
5.08333	4
5.09167	4
5.10000	4
5.10833	4
5.11667	4
5.12500	4
5.13333	4
5.14167	4
5.15000	5
5.15833	4
5.16667	4
5.17500	5
5.18333	5
5.19167	5
5.20000	5
5.20833	5
5.21667	5
5.22500	5
5.23333	4
5.24167	4
5.25000	4
5.25833	4
5.26667	4
5.27500	4
5.28333	4
5.29167	4
5.30000	4
5.30833	4
5.31667	4
5.32500	4
5.33333	3
5.34167	3
5.35000	3
5.35833	3
5.36667	3
5.37500	3
5.38333	4
5.39167	4
5.40000	3
5.40833	3
5.41667	3
5.42500	4
5.43333	4
5.44167	4
5.45000	4
5.45833	5
5.46667	4
5.47500	4
5.48333	4
5.49167	3
5.50000	4
5.50833	4
5.51667	4
5.52500	4
5.53333	3
5.54167	3
5.55000	3
5.55833	3
5.56667	3
5.57500	3
5.58333	3
5.59167	3
5.60000	4
5.60833	4
5.61667	4
5.62500	4
5.63333	4
5.64167	4
5.65000	4
5.65833	4
5.66667	4
5.67500	4
5.68333	4
5.69167	4
5.70000	4
5.70833	4
5.71667	4
5.72500	5
5.73333	5
5.74167	5
5.75000	4
5.75833	4
5.76667	5
5.77500	5
5.78333	5
5.79167	5
5.80000	5
5.80833	5
5.81667	5
5.82500	5
5.83333	5
5.84167	5
5.85000	6
5.85833	5
5.86667	5
5.87500	5
5.88333	5
5.89167	5
5.90000	5
5.90833	5
5.91667	5
5.92500	5
5.93333	6
5.94167	6
5.95000	6
5.95833	6
5.96667	6
5.97500	6
5.98333	6
5.99167	6
6.00000	6
6.00833	6
6.01667	6
6.02500	6
6.03333	7
6.04167	7
6.05000	7
6.05833	7
6.06667	7
6.07500	7
6.08333	7
6.09167	7
6.10000	7
6.10833	7
6.11667	8
6.12500	8
6.13333	8
6.14167	7
6.15000	7
6.15833	7
6.16667	7
6.17500	7
6.18333	7
6.19167	7
6.20000	7
6.20833	7
6.21667	7
6.22500	7
6.23333	7
6.24167	7
6.25000	7
6.25833	7
6.26667	7
6.27500	7
6.28333	7
6.29167	8
6.30000	8
6.30833	9
6.31667	9
6.32500	9
6.33333	9
6.34167	9
6.35000	9
6.35833	9
6.36667	9
6.37500	9
6.38333	10
6.39167	10
6.40000	10
6.40833	10
6.41667	11
6.42500	11
6.43333	11
6.44167	12
6.45000	12
6.45833	12
6.46667	12
6.47500	11
6.48333	11
6.49167	11
6.50000	11
6.50833	11
6.51667	11
6.52500	10
6.53333	10
6.54167	10
6.55000	9
6.55833	9
6.56667	9
6.57500	9
6.58333	9
6.59167	9
6.60000	9
6.60833	10
6.61667	10
6.62500	10
6.63333	10
6.64167	10
6.65000	10
6.65833	10
6.66667	10
6.67500	11
6.68333	11
6.69167	11
6.70000	11
6.70833	11
6.71667	11
6.72500	11
6.73333	11
6.74167	11
6.75000	10
6.75833	10
6.76667	10
6.77500	10
6.78333	10
6.79167	10
6.80000	10
6.80833	10
6.81667	9
6.82500	9
6.83333	9
6.84167	9
6.85000	9
6.85833	9
6.86667	9
6.87500	9
6.88333	9
6.89167	8
6.90000	8
6.90833	8
6.91667	9
6.92500	9
6.93333	9
6.94167	8
6.95000	8
6.95833	8
6.96667	8
6.97500	8
6.98333	8
6.99167	8
7.00000	8
7.00833	8
7.01667	8
7.02500	8
7.03333	8
7.04167	7
7.05000	7
7.05833	7
7.06667	7
7.07500	7
7.08333	7
7.09167	7
7.10000	7
7.10833	7
7.11667	7
7.12500	8
7.13333	8
7.14167	8
7.15000	8
7.15833	8
7.16667	8
7.17500	8
7.18333	8
7.19167	8
7.20000	8
7.20833	8
7.21667	8
7.22500	8
7.23333	8
7.24167	8
7.25000	8
7.25833	8
7.26667	8
7.27500	7
7.28333	7
7.29167	8
7.30000	8
7.30833	9
7.31667	10
7.32500	10
7.33333	10
7.34167	10
7.35000	11
7.35833	11
7.36667	11
7.37500	11
7.38333	11
7.39167	12
7.40000	12
7.40833	12
7.41667	12
7.42500	13
7.43333	13
7.44167	12
7.45000	12
7.45833	12
7.46667	13
7.47500	13
7.48333	13
7.49167	13
7.50000	13
7.50833	13
7.51667	13
7.52500	12
7.53333	12
7.54167	11
7.55000	11
7.55833	11
7.56667	12
7.57500	11
7.58333	11
7.59167	11
7.60000	11
7.60833	11
7.61667	11
7.62500	11
7.63333	11
7.64167	11
7.65000	10
7.65833	10
7.66667	10
7.67500	10
7.68333	10
7.69167	10
7.70000	11
7.70833	11
7.71667	11
7.72500	11
7.73333	11
7.74167	11
7.75000	12
7.75833	12
7.76667	12
7.77500	14
7.78333	15
7.79167	17
7.80000	20
7.80833	23
7.81667	28
7.82500	34
7.83333	43
7.84167	55
7.85000	70
7.85833	89
7.86667	111
7.87500	138
7.88333	169
7.89167	204
7.90000	243
7.90833	286
7.91667	331
7.92500	378
7.93333	425
7.94167	473
7.95000	519
7.95833	562
7.96667	602
7.97500	636
7.98333	664
7.99167	686
8.00000	702
8.00833	710
8.01667	711
8.02500	705
8.03333	693
8.04167	676
8.05000	654
8.05833	627
8.06667	598
8.07500	566
8.08333	532
8.09167	497
8.10000	462
8.10833	428
8.11667	394
8.12500	362
8.13333	331
8.14167	302
8.15000	274
8.15833	248
8.16667	225
8.17500	204
8.18333	184
8.19167	166
8.20000	150
8.20833	135
8.21667	122
8.22500	110
8.23333	99
8.24167	90
8.25000	81
8.25833	73
8.26667	65
8.27500	59
8.28333	53
8.29167	47
8.30000	42
8.30833	38
8.31667	34
8.32500	30
8.33333	26
8.34167	23
8.35000	21
8.35833	18
8.36667	17
8.37500	15
8.38333	13
8.39167	12
8.40000	10
8.40833	9
8.41667	8
8.42500	8
8.43333	8
8.44167	7
8.45000	7
8.45833	6
8.46667	6
8.47500	6
8.48333	5
8.49167	5
8.50000	5
8.50833	5
8.51667	6
8.52500	7
8.53333	8
8.54167	9
8.55000	10
8.55833	10
8.56667	11
8.57500	11
8.58333	11
8.59167	11
8.60000	11
8.60833	12
8.61667	12
8.62500	13
8.63333	13
8.64167	13
8.65000	14
8.65833	14
8.66667	15
8.67500	14
8.68333	14
8.69167	14
8.70000	14
8.70833	14
8.71667	13
8.72500	13
8.73333	13
8.74167	13
8.75000	13
8.75833	13
8.76667	13
8.77500	13
8.78333	13
8.79167	13
8.80000	13
8.80833	14
8.81667	14
8.82500	14
8.83333	14
8.84167	14
8.85000	14
8.85833	14
8.86667	14
8.87500	15
8.88333	15
8.89167	14
8.90000	14
8.90833	14
8.91667	15
8.92500	15
8.93333	15
8.94167	15
8.95000	16
8.95833	16
8.96667	16
8.97500	16
8.98333	16
8.99167	17
9.00000	17
9.00833	18
9.01667	18
9.02500	18
9.03333	18
9.04167	19
9.05000	19
9.05833	19
9.06667	19
9.07500	19
9.08333	19
9.09167	19
9.10000	19
9.10833	19
9.11667	19
9.12500	19
9.13333	19
9.14167	19
9.15000	19
9.15833	19
9.16667	19
9.17500	20
9.18333	20
9.19167	20
9.20000	21
9.20833	21
9.21667	22
9.22500	23
9.23333	23
9.24167	23
9.25000	24
9.25833	24
9.26667	24
9.27500	24
9.28333	24
9.29167	25
9.30000	25
9.30833	26
9.31667	26
9.32500	26
9.33333	26
9.34167	26
9.35000	26
9.35833	26
9.36667	27
9.37500	27
9.38333	28
9.39167	29
9.40000	29
9.40833	30
9.41667	30
9.42500	31
9.43333	30
9.44167	30
9.45000	30
9.45833	30
9.46667	31
9.47500	31
9.48333	31
9.49167	31
9.50000	31
9.50833	31
9.51667	31
9.52500	31
9.53333	31
9.54167	31
9.55000	31
9.55833	31
9.56667	31
9.57500	31
9.58333	31
9.59167	31
9.60000	31
9.60833	30
9.61667	29
9.62500	29
9.63333	29
9.64167	29
9.65000	28
9.65833	28
9.66667	28
9.67500	28
9.68333	27
9.69167	27
9.70000	26
9.70833	25
9.71667	25
9.72500	24
9.73333	23
9.74167	23
9.75000	22
9.75833	22
9.76667	22
9.77500	22
9.78333	22
9.79167	21
9.80000	21
9.80833	20
9.81667	20
9.82500	19
9.83333	19
9.84167	18
9.85000	18
9.85833	17
9.86667	17
9.87500	17
9.88333	16
9.89167	16
9.90000	16
9.90833	16
9.91667	15
9.92500	15
9.93333	14
9.94167	14
9.95000	13
9.95833	13
9.96667	13
9.97500	13
9.98333	13
9.99167	14
10.00000	14
10.00833	14
10.01667	14
10.02500	14
10.03333	15
10.04167	15
10.05000	14
10.05833	14
10.06667	14
10.07500	14
10.08333	14
10.09167	14
10.10000	13
10.10833	13
10.11667	13
10.12500	13
10.13333	13
10.14167	13
10.15000	14
10.15833	14
10.16667	14
10.17500	14
10.18333	14
10.19167	14
10.20000	14
10.20833	14
10.21667	14
10.22500	14
10.23333	14
10.24167	14
10.25000	14
10.25833	14
10.26667	14
10.27500	14
10.28333	14
10.29167	14
10.30000	14
10.30833	14
10.31667	14
10.32500	14
10.33333	14
10.34167	14
10.35000	14
10.35833	14
10.36667	14
10.37500	14
10.38333	14
10.39167	14
10.40000	14
10.40833	14
10.41667	14
10.42500	13
10.43333	13
10.44167	13
10.45000	13
10.45833	13
10.46667	13
10.47500	13
10.48333	13
10.49167	13
10.50000	13
10.50833	13
10.51667	13
10.52500	14
10.53333	14
10.54167	14
10.55000	14
10.55833	14
10.56667	14
10.57500	14
10.58333	13
10.59167	13
10.60000	13
10.60833	12
10.61667	12
10.62500	12
10.63333	12
10.64167	12
10.65000	12
10.65833	11
10.66667	11
10.67500	11
10.68333	10
10.69167	11
10.70000	11
10.70833	11
10.71667	10
10.72500	10
10.73333	10
10.74167	10
10.75000	9
10.75833	9
10.76667	9
10.77500	9
10.78333	9
10.79167	8
10.80000	8
10.80833	8
10.81667	8
10.82500	8
10.83333	8
10.84167	8
10.85000	8
10.85833	8
10.86667	8
10.87500	9
10.88333	9
10.89167	9
10.90000	10
10.90833	11
10.91667	11
10.92500	12
10.93333	12
10.94167	13
10.95000	13
10.95833	15
10.96667	17
10.97500	19
10.98333	21
10.99167	23
11.00000	26
11.00833	29
11.01667	33
11.02500	37
11.03333	43
11.04167	49
11.05000	56
11.05833	65
11.06667	75
11.07500	89
11.08333	105
11.09167	125
11.10000	150
11.10833	179
11.11667	215
11.12500	259
11.13333	311
11.14167	373
11.15000	447
11.15833	535
11.16667	637
11.17500	755
11.18333	890
11.19167	1044
11.20000	1216
11.20833	1408
11.21667	1619
11.22500	1849
11.23333	2097
11.24167	2362
11.25000	2642
11.25833	2935
11.26667	3237
11.27500	3545
11.28333	3855
11.29167	4165
11.30000	4468
11.30833	4762
11.31667	5042
11.32500	5305
11.33333	5546
11.34167	5762
11.35000	5950
11.35833	6109
11.36667	6237
11.37500	6331
11.38333	6392
11.39167	6418
11.40000	6412
11.40833	6374
11.41667	6306
11.42500	6209
11.43333	6085
11.44167	5937
11.45000	5769
11.45833	5582
11.46667	5379
11.47500	5164
11.48333	4939
11.49167	4707
11.50000	4471
11.50833	4233
11.51667	3994
11.52500	3757
11.53333	3523
11.54167	3294
11.55000	3072
11.55833	2857
11.56667	2650
11.57500	2452
11.58333	2264
11.59167	2085
11.60000	1917
11.60833	1758
11.61667	1610
11.62500	1471
11.63333	1343
11.64167	1223
11.65000	1112
11.65833	1010
11.66667	916
11.67500	830
11.68333	752
11.69167	680
11.70000	615
11.70833	555
11.71667	501
11.72500	452
11.73333	408
11.74167	368
11.75000	332
11.75833	300
11.76667	271
11.77500	245
11.78333	221
11.79167	200
11.80000	181
11.80833	165
11.81667	150
11.82500	137
11.83333	125
11.84167	114
11.85000	105
11.85833	96
11.86667	88
11.87500	81
11.88333	75
11.89167	69
11.90000	65
11.90833	61
11.91667	57
11.92500	53
11.93333	49
11.94167	45
11.95000	43
11.95833	41
11.96667	39
11.97500	38
11.98333	36
11.99167	35
12.00000	35
12.00833	34
12.01667	33
12.02500	33
12.03333	32
12.04167	31
12.05000	31
12.05833	31
12.06667	31
12.07500	31
12.08333	31
12.09167	31
12.10000	31
12.10833	31
12.11667	31
12.12500	32
12.13333	32
12.14167	33
12.15000	34
12.15833	35
12.16667	35
12.17500	36
12.18333	36
12.19167	36
12.20000	36
12.20833	35
12.21667	35
12.22500	35
12.23333	35
12.24167	35
12.25000	34
12.25833	34
12.26667	34
12.27500	33
12.28333	33
12.29167	32
12.30000	32
12.30833	31
12.31667	30
12.32500	30
12.33333	29
12.34167	28
12.35000	28
12.35833	27
12.36667	26
12.37500	25
12.38333	24
12.39167	24
12.40000	23
12.40833	22
12.41667	21
12.42500	20
12.43333	20
12.44167	20
12.45000	19
12.45833	19
12.46667	19
12.47500	18
12.48333	17
12.49167	17
12.50000	16
12.50833	15
12.51667	14
12.52500	14
12.53333	14
12.54167	13
12.55000	13
12.55833	13
12.56667	12
12.57500	12
12.58333	12
12.59167	11
12.60000	11
12.60833	12
12.61667	12
12.62500	12
12.63333	12
12.64167	12
12.65000	12
12.65833	12
12.66667	13
12.67500	13
12.68333	13
12.69167	14
12.70000	14
12.70833	14
12.71667	14
12.72500	14
12.73333	14
12.74167	15
12.75000	15
12.75833	16
12.76667	16
12.77500	16
12.78333	17
12.79167	17
12.80000	18
12.80833	18
12.81667	18
12.82500	18
12.83333	18
12.84167	19
12.85000	18
12.85833	18
12.86667	18
12.87500	18
12.88333	18
12.89167	18
12.90000	17
12.90833	17
12.91667	17
12.92500	17
12.93333	16
12.94167	16
12.95000	16
12.95833	17
12.96667	16
12.97500	16
12.98333	15
12.99167	15
13.00000	14
13.00833	14
13.01667	13
13.02500	13
13.03333	13
13.04167	13
13.05000	13
13.05833	12
13.06667	12
13.07500	12
13.08333	11
13.09167	11
13.10000	10
13.10833	10
13.11667	10
13.12500	10
13.13333	10
13.14167	10
13.15000	10
13.15833	10
13.16667	10
13.17500	10
13.18333	10
13.19167	10
13.20000	10
13.20833	9
13.21667	10
13.22500	10
13.23333	11
13.24167	11
13.25000	10
13.25833	11
13.26667	11
13.27500	10
13.28333	10
13.29167	10
13.30000	10
13.30833	10
13.31667	10
13.32500	11
13.33333	11
13.34167	10
13.35000	10
13.35833	10
13.36667	10
13.37500	10
13.38333	10
13.39167	10
13.40000	11
13.40833	11
13.41667	12
13.42500	12
13.43333	12
13.44167	13
13.45000	13
13.45833	14
13.46667	14
13.47500	13
13.48333	13
13.49167	12
13.50000	12
13.50833	12
13.51667	12
13.52500	12
13.53333	11
13.54167	11
13.55000	11
13.55833	11
13.56667	12
13.57500	12
13.58333	12
13.59167	12
13.60000	11
13.60833	11
13.61667	11
13.62500	11
13.63333	11
13.64167	10
13.65000	10
13.65833	10
13.66667	11
13.67500	11
13.68333	11
13.69167	12
13.70000	12
13.70833	12
13.71667	12
13.72500	12
13.73333	12
13.74167	12
13.75000	12
13.75833	11
13.76667	11
13.77500	11
13.78333	11
13.79167	11
13.80000	11
13.80833	11
13.81667	11
13.82500	11
13.83333	11
13.84167	11
13.85000	12
13.85833	13
13.86667	13
13.87500	14
13.88333	14
13.89167	14
13.90000	13
13.90833	13
13.91667	13
13.92500	13
13.93333	13
13.94167	14
13.95000	14
13.95833	14
13.96667	15
13.97500	14
13.98333	14
13.99167	15
14.00000	15
14.00833	15
14.01667	16
14.02500	16
14.03333	16
14.04167	17
14.05000	17
14.05833	17
14.06667	18
14.07500	18
14.08333	18
14.09167	19
14.10000	19
14.10833	19
14.11667	19
14.12500	19
14.13333	20
14.14167	20
14.15000	20
14.15833	21
14.16667	21
14.17500	22
14.18333	23
14.19167	23
14.20000	23
14.20833	23
14.21667	24
14.22500	25
14.23333	25
14.24167	26
14.25000	27
14.25833	27
14.26667	28
14.27500	29
14.28333	29
14.29167	30
14.30000	30
14.30833	30
14.31667	30
14.32500	30
14.33333	30
14.34167	30
14.35000	30
14.35833	30
14.36667	31
14.37500	31
14.38333	31
14.39167	31
14.40000	32
14.40833	32
14.41667	32
14.42500	31
14.43333	31
14.44167	31
14.45000	32
14.45833	32
14.46667	32
14.47500	32
14.48333	32
14.49167	32
14.50000	32
14.50833	32
14.51667	33
14.52500	33
14.53333	34
14.54167	34
14.55000	34
14.55833	34
14.56667	34
14.57500	34
14.58333	34
14.59167	35
14.60000	36
14.60833	36
14.61667	36
14.62500	36
14.63333	37
14.64167	37
14.65000	38
14.65833	38
14.66667	39
14.67500	39
14.68333	40
14.69167	40
14.70000	41
14.70833	42
14.71667	42
14.72500	43
14.73333	43
14.74167	44
14.75000	45
14.75833	45
14.76667	46
14.77500	46
14.78333	48
14.79167	49
14.80000	50
14.80833	51
14.81667	52
14.82500	52
14.83333	53
14.84167	54
14.85000	54
14.85833	55
14.86667	56
14.87500	57
14.88333	58
14.89167	59
14.90000	60
14.90833	61
14.91667	62
14.92500	63
14.93333	64
14.94167	65
14.95000	67
14.95833	68
14.96667	69
14.97500	69
14.98333	70
14.99167	71
15.00000	72
15.00833	73
15.01667	75
15.02500	76
15.03333	78
15.04167	79
15.05000	80
15.05833	81
15.06667	82
15.07500	84
15.08333	85
15.09167	87
15.10000	89
15.10833	91
15.11667	92
15.12500	94
15.13333	96
15.14167	99
15.15000	102
15.15833	104
15.16667	107
15.17500	111
15.18333	115
15.19167	120
15.20000	126
15.20833	132
15.21667	139
15.22500	147
15.23333	156
15.24167	166
15.25000	179
15.25833	193
15.26667	209
15.27500	228
15.28333	249
15.29167	274
15.30000	303
15.30833	335
15.31667	371
15.32500	412
15.33333	458
15.34167	509
15.35000	566
15.35833	628
15.36667	697
15.37500	770
15.38333	850
15.39167	936
15.40000	1027
15.40833	1123
15.41667	1224
15.42500	1330
15.43333	1439
15.44167	1551
15.45000	1665
15.45833	1781
15.46667	1897
15.47500	2012
15.48333	2125
15.49167	2235
15.50000	2340
15.50833	2440
15.51667	2534
15.52500	2621
15.53333	2699
15.54167	2768
15.55000	2829
15.55833	2879
15.56667	2919
15.57500	2948
15.58333	2966
15.59167	2974
15.60000	2971
15.60833	2958
15.61667	2934
15.62500	2902
15.63333	2860
15.64167	2811
15.65000	2754
15.65833	2689
15.66667	2619
15.67500	2543
15.68333	2463
15.69167	2379
15.70000	2292
15.70833	2202
15.71667	2110
15.72500	2018
15.73333	1925
15.74167	1832
15.75000	1741
15.75833	1650
15.76667	1561
15.77500	1474
15.78333	1390
15.79167	1308
15.80000	1228
15.80833	1152
15.81667	1079
15.82500	1009
15.83333	943
15.84167	879
15.85000	819
15.85833	761
15.86667	707
15.87500	655
15.88333	607
15.89167	562
15.90000	520
15.90833	481
15.91667	445
15.92500	411
15.93333	380
15.94167	351
15.95000	323
15.95833	298
15.96667	275
15.97500	254
15.98333	234
15.99167	216
16.00000	200
16.00833	185
16.01667	171
16.02500	158
16.03333	147
16.04167	136
16.05000	126
16.05833	117
16.06667	108
16.07500	100
16.08333	93
16.09167	86
16.10000	81
16.10833	75
16.11667	71
16.12500	66
16.13333	62
16.14167	59
16.15000	56
16.15833	53
16.16667	50
16.17500	48
16.18333	46
16.19167	45
16.20000	43
16.20833	41
16.21667	39
16.22500	38
16.23333	36
16.24167	34
16.25000	33
16.25833	32
16.26667	31
16.27500	30
16.28333	29
16.29167	29
16.30000	28
16.30833	28
16.31667	27
16.32500	26
16.33333	26
16.34167	25
16.35000	25
16.35833	25
16.36667	25
16.37500	25
16.38333	24
16.39167	24
16.40000	24
16.40833	24
16.41667	24
16.42500	24
16.43333	24
16.44167	24
16.45000	24
16.45833	23
16.46667	23
16.47500	23
16.48333	23
16.49167	23
16.50000	23
16.50833	23
16.51667	23
16.52500	23
16.53333	22
16.54167	22
16.55000	22
16.55833	21
16.56667	21
16.57500	21
16.58333	21
16.59167	22
16.60000	22
16.60833	22
16.61667	22
16.62500	23
16.63333	23
16.64167	23
16.65000	23
16.65833	23
16.66667	23
16.67500	22
16.68333	22
16.69167	22
16.70000	22
16.70833	22
16.71667	22
16.72500	22
16.73333	22
16.74167	22
16.75000	22
16.75833	22
16.76667	22
16.77500	21
16.78333	21
16.79167	21
16.80000	20
16.80833	20
16.81667	20
16.82500	19
16.83333	19
16.84167	19
16.85000	19
16.85833	19
16.86667	19
16.87500	19
16.88333	18
16.89167	18
16.90000	18
16.90833	18
16.91667	18
16.92500	18
16.93333	17
16.94167	17
16.95000	18
16.95833	18
16.96667	18
16.97500	18
16.98333	18
16.99167	17
17.00000	17
17.00833	16
17.01667	16
17.02500	16
17.03333	16
17.04167	16
17.05000	16
17.05833	16
17.06667	16
17.07500	15
17.08333	15
17.09167	15
17.10000	15
17.10833	14
17.11667	14
17.12500	14
17.13333	14
17.14167	13
17.15000	13
17.15833	13
17.16667	14
17.17500	15
17.18333	15
17.19167	15
17.20000	15
17.20833	15
17.21667	15
17.22500	15
17.23333	15
17.24167	15
17.25000	15
17.25833	15
17.26667	15
17.27500	14
17.28333	14
17.29167	14
17.30000	14
17.30833	14
17.31667	14
17.32500	14
17.33333	14
17.34167	14
17.35000	14
17.35833	13
17.36667	12
17.37500	12
17.38333	11
17.39167	12
17.40000	12
17.40833	12
17.41667	12
17.42500	12
17.43333	12
17.44167	12
17.45000	12
17.45833	12
17.46667	12
17.47500	12
17.48333	11
17.49167	11
17.50000	11
17.50833	11
17.51667	11
17.52500	11
17.53333	11
17.54167	11
17.55000	12
17.55833	12
17.56667	12
17.57500	13
17.58333	13
17.59167	13
17.60000	13
17.60833	13
17.61667	13
17.62500	13
17.63333	13
17.64167	14
17.65000	14
17.65833	15
17.66667	15
17.67500	16
17.68333	16
17.69167	17
17.70000	17
17.70833	18
17.71667	18
17.72500	19
17.73333	20
17.74167	21
17.75000	22
17.75833	23
17.76667	24
17.77500	26
17.78333	27
17.79167	29
17.80000	31
17.80833	33
17.81667	36
17.82500	39
17.83333	43
17.84167	47
17.85000	51
17.85833	56
17.86667	62
17.87500	69
17.88333	77
17.89167	86
17.90000	95
17.90833	107
17.91667	119
17.92500	134
17.93333	149
17.94167	166
17.95000	185
17.95833	206
17.96667	229
17.97500	254
17.98333	282
17.99167	312
18.00000	344
18.00833	379
18.01667	415
18.02500	455
18.03333	496
18.04167	540
18.05000	586
18.05833	633
18.06667	682
18.07500	732
18.08333	783
18.09167	834
18.10000	886
18.10833	938
18.11667	990
18.12500	1041
18.13333	1090
18.14167	1139
18.15000	1185
18.15833	1229
18.16667	1271
18.17500	1309
18.18333	1343
18.19167	1374
18.20000	1401
18.20833	1424
18.21667	1443
18.22500	1458
18.23333	1469
18.24167	1475
18.25000	1477
18.25833	1475
18.26667	1469
18.27500	1459
18.28333	1444
18.29167	1426
18.30000	1404
18.30833	1379
18.31667	1351
18.32500	1320
18.33333	1287
18.34167	1252
18.35000	1215
18.35833	1177
18.36667	1138
18.37500	1098
18.38333	1057
18.39167	1015
18.40000	973
18.40833	932
18.41667	890
18.42500	849
18.43333	809
18.44167	770
18.45000	731
18.45833	693
18.46667	656
18.47500	620
18.48333	586
18.49167	553
18.50000	522
18.50833	491
18.51667	462
18.52500	434
18.53333	408
18.54167	383
18.55000	359
18.55833	337
18.56667	316
18.57500	296
18.58333	277
18.59167	259
18.60000	242
18.60833	227
18.61667	212
18.62500	199
18.63333	186
18.64167	175
18.65000	164
18.65833	154
18.66667	145
18.67500	136
18.68333	128
18.69167	121
18.70000	115
18.70833	109
18.71667	103
18.72500	98
18.73333	94
18.74167	90
18.75000	86
18.75833	82
18.76667	78
18.77500	76
18.78333	73
18.79167	70
18.80000	68
18.80833	66
18.81667	63
18.82500	62
18.83333	60
18.84167	59
18.85000	58
18.85833	57
18.86667	56
18.87500	56
18.88333	55
18.89167	54
18.90000	53
18.90833	52
18.91667	51
18.92500	50
18.93333	50
18.94167	49
18.95000	49
18.95833	48
18.96667	48
18.97500	48
18.98333	47
18.99167	47
19.00000	47
19.00833	46
19.01667	46
19.02500	46
19.03333	46
19.04167	45
19.05000	45
19.05833	45
19.06667	45
19.07500	45
19.08333	45
19.09167	45
19.10000	44
19.10833	44
19.11667	44
19.12500	44
19.13333	43
19.14167	43
19.15000	42
19.15833	42
19.16667	42
19.17500	42
19.18333	42
19.19167	42
19.20000	42
19.20833	42
19.21667	41
19.22500	41
19.23333	41
19.24167	41
19.25000	41
19.25833	41
19.26667	41
19.27500	40
19.28333	40
19.29167	40
19.30000	39
19.30833	39
19.31667	39
19.32500	39
19.33333	38
19.34167	38
19.35000	38
19.35833	37
19.36667	37
19.37500	37
19.38333	37
19.39167	36
19.40000	36
19.40833	36
19.41667	36
19.42500	36
19.43333	36
19.44167	36
19.45000	35
19.45833	35
19.46667	35
19.47500	34
19.48333	34
19.49167	34
19.50000	34
19.50833	34
19.51667	33
19.52500	33
19.53333	33
19.54167	34
19.55000	33
19.55833	33
19.56667	33
19.57500	32
19.58333	32
19.59167	32
19.60000	32
19.60833	32
19.61667	31
19.62500	31
19.63333	30
19.64167	30
19.65000	30
19.65833	30
19.66667	30
19.67500	30
19.68333	30
19.69167	30
19.70000	31
19.70833	30
19.71667	30
19.72500	30
19.73333	30
19.74167	29
19.75000	29
19.75833	29
19.76667	29
19.77500	29
19.78333	29
19.79167	29
19.80000	28
19.80833	28
19.81667	29
19.82500	29
19.83333	30
19.84167	30
19.85000	30
19.85833	30
19.86667	30
19.87500	30
19.88333	30
19.89167	31
19.90000	31
19.90833	30
19.91667	30
19.92500	30
19.93333	29
19.94167	29
19.95000	29
19.95833	29
19.96667	28
19.97500	28
19.98333	29
19.99167	29
20.00000	29
20.00833	29
20.01667	29
20.02500	29
20.03333	28
20.04167	28
20.05000	28
20.05833	28
20.06667	28
20.07500	28
20.08333	28
20.09167	28
20.10000	28
20.10833	28
20.11667	28
20.12500	28
20.13333	28
20.14167	27
20.15000	27
20.15833	27
20.16667	27
20.17500	28
20.18333	28
20.19167	28
20.20000	28
20.20833	28
20.21667	28
20.22500	28
20.23333	28
20.24167	28
20.25000	28
20.25833	28
20.26667	28
20.27500	28
20.28333	28
20.29167	28
20.30000	27
20.30833	27
20.31667	27
20.32500	27
20.33333	27
20.34167	26
20.35000	26
20.35833	26
20.36667	26
20.37500	26
20.38333	26
20.39167	26
20.40000	26
20.40833	26
20.41667	25
20.42500	25
20.43333	25
20.44167	25
20.45000	25
20.45833	25
20.46667	24
20.47500	24
20.48333	24
20.49167	24
20.50000	23
20.50833	23
20.51667	23
20.52500	23
20.53333	24
20.54167	24
20.55000	24
20.55833	24
20.56667	24
20.57500	24
20.58333	24
20.59167	24
20.60000	24
20.60833	24
20.61667	25
20.62500	25
20.63333	25
20.64167	25
20.65000	25
20.65833	25
20.66667	25
20.67500	25
20.68333	25
20.69167	25
20.70000	25
20.70833	25
20.71667	26
20.72500	26
20.73333	26
20.74167	26
20.75000	26
20.75833	26
20.76667	26
20.77500	26
20.78333	25
20.79167	25
20.80000	25
20.80833	25
20.81667	25
20.82500	25
20.83333	25
20.84167	25
20.85000	25
20.85833	26
20.86667	26
20.87500	27
20.88333	27
20.89167	27
20.90000	27
20.90833	27
20.91667	27
20.92500	27
20.93333	27
20.94167	27
20.95000	27
20.95833	27
20.96667	27
20.97500	27
20.98333	27
20.99167	27
21.00000	27
21.00833	26
21.01667	26
21.02500	26
21.03333	26
21.04167	26
21.05000	26
21.05833	27
21.06667	27
21.07500	27
21.08333	28
21.09167	28
21.10000	28
21.10833	28
21.11667	27
21.12500	28
21.13333	28
21.14167	29
21.15000	29
21.15833	29
21.16667	29
21.17500	29
21.18333	29
21.19167	30
21.20000	30
21.20833	30
21.21667	29
21.22500	29
21.23333	28
21.24167	28
21.25000	28
21.25833	28
21.26667	27
21.27500	27
21.28333	28
21.29167	28
21.30000	28
21.30833	28
21.31667	28
21.32500	28
21.33333	28
21.34167	28
21.35000	28
21.35833	28
21.36667	28
21.37500	28
21.38333	28
21.39167	28
21.40000	28
21.40833	28
21.41667	28
21.42500	28
21.43333	28
21.44167	29
21.45000	29
21.45833	30
21.46667	30
21.47500	30
21.48333	30
21.49167	30
21.50000	30
21.50833	30
21.51667	30
21.52500	30
21.53333	30
21.54167	30
21.55000	30
21.55833	29
21.56667	29
21.57500	29
21.58333	29
21.59167	29
21.60000	29
21.60833	29
21.61667	29
21.62500	29
21.63333	29
21.64167	29
21.65000	28
21.65833	28
21.66667	28
21.67500	28
21.68333	28
21.69167	28
21.70000	28
21.70833	28
21.71667	28
21.72500	28
21.73333	28
21.74167	27
21.75000	27
21.75833	27
21.76667	27
21.77500	27
21.78333	27
21.79167	27
21.80000	27
21.80833	27
21.81667	27
21.82500	26
21.83333	25
21.84167	25
21.85000	24
21.85833	24
21.86667	23
21.87500	23
21.88333	22
21.89167	21
21.90000	21
21.90833	20
21.91667	19
21.92500	17
21.93333	16
21.94167	15
21.95000	13
21.95833	12
21.96667	10
21.97500	9
21.98333	7
21.99167	5
22.00000	4
22.00833	2
22.01667	0
22.02500	-2
22.03333	-4
22.04167	-7
22.05000	-9
22.05833	-12
22.06667	-15
22.07500	-18
22.08333	-21
22.09167	-24
22.10000	-27
22.10833	-30
22.11667	-33
22.12500	-36
22.13333	-39
22.14167	-42
22.15000	-45
22.15833	-48
22.16667	-52
22.17500	-55
22.18333	-58
22.19167	-61
22.20000	-64
22.20833	-67
22.21667	-69
22.22500	-72
22.23333	-74
22.24167	-76
22.25000	-78
22.25833	-80
22.26667	-82
22.27500	-83
22.28333	-85
22.29167	-86
22.30000	-88
22.30833	-89
22.31667	-89
22.32500	-90
22.33333	-90
22.34167	-90
22.35000	-90
22.35833	-90
22.36667	-89
22.37500	-88
22.38333	-87
22.39167	-86
22.40000	-85
22.40833	-83
22.41667	-81
22.42500	-79
22.43333	-77
22.44167	-75
22.45000	-72
22.45833	-70
22.46667	-68
22.47500	-65
22.48333	-63
22.49167	-60
22.50000	-58
22.50833	-55
22.51667	-52
22.52500	-49
22.53333	-46
22.54167	-43
22.55000	-41
22.55833	-38
22.56667	-36
22.57500	-33
22.58333	-31
22.59167	-28
22.60000	-25
22.60833	-23
22.61667	-20
22.62500	-18
22.63333	-16
22.64167	-13
22.65000	-12
22.65833	-10
22.66667	-8
22.67500	-6
22.68333	-5
22.69167	-3
22.70000	-1
22.70833	0
22.71667	2
22.72500	3
22.73333	4
22.74167	5
22.75000	6
22.75833	7
22.76667	8
22.77500	9
22.78333	10
22.79167	11
22.80000	12
22.80833	12
22.81667	13
22.82500	14
22.83333	14
22.84167	15
22.85000	15
22.85833	16
22.86667	17
22.87500	17
22.88333	18
22.89167	18
22.90000	19
22.90833	19
22.91667	20
22.92500	21
22.93333	21
22.94167	21
22.95000	22
22.95833	22
22.96667	22
22.97500	22
22.98333	22
22.99167	22
23.00000	22
23.00833	22
23.01667	22
23.02500	22
23.03333	22
23.04167	23
23.05000	23
23.05833	24
23.06667	24
23.07500	24
23.08333	24
23.09167	25
23.10000	25
23.10833	25
23.11667	25
23.12500	25
23.13333	26
23.14167	26
23.15000	26
23.15833	25
23.16667	26
23.17500	26
23.18333	26
23.19167	27
23.20000	27
23.20833	27
23.21667	27
23.22500	27
23.23333	27
23.24167	28
23.25000	28
23.25833	28
23.26667	27
23.27500	27
23.28333	27
23.29167	27
23.30000	28
23.30833	28
23.31667	28
23.32500	28
23.33333	27
23.34167	27
23.35000	27
23.35833	27
23.36667	26
23.37500	26
23.38333	27
23.39167	27
23.40000	27
23.40833	27
23.41667	27
23.42500	27
23.43333	26
23.44167	26
23.45000	26
23.45833	25
23.46667	25
23.47500	26
23.48333	26
23.49167	26
23.50000	26
23.50833	25
23.51667	25
23.52500	25
23.53333	25
23.54167	25
23.55000	24
23.55833	23
23.56667	23
23.57500	22
23.58333	22
23.59167	22
23.60000	21
23.60833	21
23.61667	20
23.62500	19
23.63333	18
23.64167	18
23.65000	18
23.65833	18
23.66667	17
23.67500	17
23.68333	17
23.69167	16
23.70000	15
23.70833	14
23.71667	13
23.72500	11
23.73333	10
23.74167	9
23.75000	9
23.75833	8
23.76667	7
23.77500	7
23.78333	6
23.79167	5
23.80000	4
23.80833	3
23.81667	3
23.82500	2
23.83333	1
23.84167	-0
23.85000	-0
23.85833	-1
23.86667	-2
23.87500	-2
23.88333	-3
23.89167	-4
23.90000	-5
23.90833	-6
23.91667	-7
23.92500	-7
23.93333	-7
23.94167	-7
23.95000	-7
23.95833	-8
23.96667	-8
23.97500	-8
23.98333	-9
23.99167	-9
24.00000	-9
24.00833	-9
24.01667	-9
24.02500	-9
24.03333	-9
24.04167	-9
24.05000	-9
24.05833	-9
24.06667	-8
24.07500	-8
24.08333	-8
24.09167	-8
24.10000	-7
24.10833	-7
24.11667	-6
24.12500	-5
24.13333	-5
24.14167	-4
24.15000	-3
24.15833	-3
24.16667	-2
24.17500	-1
24.18333	-0
24.19167	1
24.20000	2
24.20833	3
24.21667	3
24.22500	4
24.23333	5
24.24167	6
24.25000	7
24.25833	8
24.26667	8
24.27500	9
24.28333	9
24.29167	10
24.30000	11
24.30833	12
24.31667	13
24.32500	14
24.33333	15
24.34167	15
24.35000	16
24.35833	16
24.36667	16
24.37500	16
24.38333	17
24.39167	18
24.40000	18
24.40833	18
24.41667	19
24.42500	20
24.43333	20
24.44167	21
24.45000	22
24.45833	22
24.46667	23
24.47500	23
24.48333	23
24.49167	24
24.50000	24
24.50833	24
24.51667	24
24.52500	25
24.53333	25
24.54167	25
24.55000	25
24.55833	25
24.56667	24
24.57500	24
24.58333	24
24.59167	25
24.60000	25
24.60833	25
24.61667	26
24.62500	26
24.63333	26
24.64167	26
24.65000	25
24.65833	25
24.66667	25
24.67500	25
24.68333	26
24.69167	26
24.70000	26
24.70833	25
24.71667	25
24.72500	25
24.73333	25
24.74167	25
24.75000	25
24.75833	25
24.76667	25
24.77500	25
24.78333	26
24.79167	25
24.80000	25
24.80833	25
24.81667	25
24.82500	25
24.83333	25
24.84167	25
24.85000	25
24.85833	24
24.86667	24
24.87500	24
24.88333	24
24.89167	25
24.90000	25
24.90833	26
24.91667	26
24.92500	26
24.93333	26
24.94167	27
24.95000	27
24.95833	27
24.96667	26
24.97500	26
24.98333	25
24.99167	25
25.00000	25
25.00833	25
25.01667	25
25.02500	25
25.03333	25
25.04167	26
25.05000	26
25.05833	26
25.06667	26
25.07500	25
25.08333	25
25.09167	25
25.10000	25
25.10833	25
25.11667	25
25.12500	24
25.13333	25
25.14167	25
25.15000	25
25.15833	25
25.16667	25
25.17500	25
25.18333	26
25.19167	26
25.20000	26
25.20833	27
25.21667	27
25.22500	27
25.23333	27
25.24167	27
25.25000	27
25.25833	27
25.26667	26
25.27500	27
25.28333	27
25.29167	27
25.30000	26
25.30833	26
25.31667	26
25.32500	27
25.33333	27
25.34167	28
25.35000	28
25.35833	29
25.36667	30
25.37500	31
25.38333	32
25.39167	33
25.40000	34
25.40833	35
25.41667	36
25.42500	37
25.43333	38
25.44167	40
25.45000	42
25.45833	44
25.46667	47
25.47500	50
25.48333	53
25.49167	55
25.50000	59
25.50833	62
25.51667	66
25.52500	70
25.53333	74
25.54167	80
25.55000	85
25.55833	91
25.56667	98
25.57500	106
25.58333	114
25.59167	122
25.60000	131
25.60833	141
25.61667	152
25.62500	164
25.63333	177
25.64167	191
25.65000	206
25.65833	222
25.66667	241
25.67500	260
25.68333	281
25.69167	304
25.70000	330
25.70833	357
25.71667	386
25.72500	418
25.73333	452
25.74167	488
25.75000	527
25.75833	568
25.76667	613
25.77500	660
25.78333	710
25.79167	763
25.80000	819
25.80833	879
25.81667	942
25.82500	1008
25.83333	1078
25.84167	1151
25.85000	1226
25.85833	1305
25.86667	1388
25.87500	1472
25.88333	1560
25.89167	1650
25.90000	1743
25.90833	1838
25.91667	1935
25.92500	2034
25.93333	2135
25.94167	2237
25.95000	2339
25.95833	2441
25.96667	2544
25.97500	2647
25.98333	2748
25.99167	2849
26.00000	2948
26.00833	3046
26.01667	3142
26.02500	3234
26.03333	3323
26.04167	3409
26.05000	3492
26.05833	3570
26.06667	3644
26.07500	3713
26.08333	3777
26.09167	3836
26.10000	3889
26.10833	3936
26.11667	3977
26.12500	4013
26.13333	4042
26.14167	4064
26.15000	4081
26.15833	4091
26.16667	4095
26.17500	4092
26.18333	4083
26.19167	4069
26.20000	4048
26.20833	4021
26.21667	3989
26.22500	3952
26.23333	3909
26.24167	3863
26.25000	3811
26.25833	3756
26.26667	3696
26.27500	3633
26.28333	3566
26.29167	3496
26.30000	3424
26.30833	3349
26.31667	3271
26.32500	3192
26.33333	3111
26.34167	3028
26.35000	2944
26.35833	2860
26.36667	2775
26.37500	2690
26.38333	2604
26.39167	2519
26.40000	2435
26.40833	2351
26.41667	2268
26.42500	2185
26.43333	2104
26.44167	2024
26.45000	1945
26.45833	1868
26.46667	1792
26.47500	1718
26.48333	1645
26.49167	1575
26.50000	1507
26.50833	1440
26.51667	1376
26.52500	1313
26.53333	1252
26.54167	1193
26.55000	1137
26.55833	1082
26.56667	1030
26.57500	980
26.58333	932
26.59167	886
26.60000	841
26.60833	799
26.61667	757
26.62500	718
26.63333	681
26.64167	646
26.65000	612
26.65833	581
26.66667	550
26.67500	521
26.68333	494
26.69167	468
26.70000	443
26.70833	419
26.71667	397
26.72500	375
26.73333	355
26.74167	336
26.75000	318
26.75833	301
26.76667	285
26.77500	271
26.78333	256
26.79167	243
26.80000	231
26.80833	220
26.81667	209
26.82500	199
26.83333	189
26.84167	180
26.85000	172
26.85833	164
26.86667	157
26.87500	150
26.88333	144
26.89167	138
26.90000	132
26.90833	126
26.91667	121
26.92500	116
26.93333	112
26.94167	108
26.95000	104
26.95833	100
26.96667	96
26.97500	93
26.98333	90
26.99167	87
27.00000	84
27.00833	82
27.01667	80
27.02500	77
27.03333	75
27.04167	73
27.05000	71
27.05833	70
27.06667	68
27.07500	67
27.08333	66
27.09167	65
27.10000	64
27.10833	63
27.11667	63
27.12500	62
27.13333	62
27.14167	61
27.15000	60
27.15833	59
27.16667	58
27.17500	57
27.18333	56
27.19167	55
27.20000	54
27.20833	53
27.21667	51
27.22500	51
27.23333	50
27.24167	50
27.25000	50
27.25833	49
27.26667	49
27.27500	49
27.28333	49
27.29167	48
27.30000	48
27.30833	47
27.31667	47
27.32500	46
27.33333	46
27.34167	45
27.35000	45
27.35833	44
27.36667	44
27.37500	43
27.38333	43
27.39167	43
27.40000	42
27.40833	42
27.41667	41
27.42500	41
27.43333	41
27.44167	41
27.45000	42
27.45833	41
27.46667	41
27.47500	40
27.48333	40
27.49167	39
27.50000	39
27.50833	39
27.51667	39
27.52500	39
27.53333	39
27.54167	38
27.55000	38
27.55833	38
27.56667	37
27.57500	37
27.58333	36
27.59167	35
27.60000	35
27.60833	35
27.61667	35
27.62500	34
27.63333	34
27.64167	35
27.65000	35
27.65833	35
27.66667	35
27.67500	35
27.68333	35
27.69167	35
27.70000	35
27.70833	35
27.71667	35
27.72500	35
27.73333	34
27.74167	34
27.75000	34
27.75833	33
27.76667	33
27.77500	33
27.78333	32
27.79167	32
27.80000	32
27.80833	32
27.81667	33
27.82500	33
27.83333	34
27.84167	34
27.85000	35
27.85833	34
27.86667	34
27.87500	34
27.88333	34
27.89167	34
27.90000	34
27.90833	34
27.91667	34
27.92500	34
27.93333	34
27.94167	33
27.95000	33
27.95833	33
27.96667	33
27.97500	33
27.98333	33
27.99167	33
28.00000	33

