R.Time (min)	Intensity
0.00000	0
0.00833	0
0.01667	0
0.02500	0
0.03333	0
0.04167	-0
0.05000	-0
0.05833	-0
0.06667	-0
0.07500	0
0.08333	1
0.09167	1
0.10000	2
0.10833	2
0.11667	2
0.12500	2
0.13333	2
0.14167	3
0.15000	3
0.15833	3
0.16667	3
0.17500	3
0.18333	3
0.19167	3
0.20000	3
0.20833	3
0.21667	3
0.22500	3
0.23333	3
0.24167	3
0.25000	3
0.25833	3
0.26667	3
0.27500	3
0.28333	2
0.29167	2
0.30000	2
0.30833	2
0.31667	2
0.32500	2
0.33333	2
0.34167	2
0.35000	2
0.35833	2
0.36667	2
0.37500	2
0.38333	2
0.39167	2
0.40000	2
0.40833	3
0.41667	3
0.42500	3
0.43333	3
0.44167	2
0.45000	2
0.45833	1
0.46667	1
0.47500	1
0.48333	1
0.49167	0
0.50000	0
0.50833	0
0.51667	-0
0.52500	-1
0.53333	-1
0.54167	-1
0.55000	-1
0.55833	-2
0.56667	-1
0.57500	-1
0.58333	-2
0.59167	-2
0.60000	-2
0.60833	-2
0.61667	-2
0.62500	-2
0.63333	-2
0.64167	-2
0.65000	-2
0.65833	-1
0.66667	-2
0.67500	-2
0.68333	-2
0.69167	-2
0.70000	-3
0.70833	-3
0.71667	-3
0.72500	-3
0.73333	-3
0.74167	-3
0.75000	-3
0.75833	-3
0.76667	-2
0.77500	-2
0.78333	-2
0.79167	-2
0.80000	-3
0.80833	-3
0.81667	-3
0.82500	-2
0.83333	-2
0.84167	-3
0.85000	-3
0.85833	-3
0.86667	-3
0.87500	-3
0.88333	-3
0.89167	-3
0.90000	-3
0.90833	-3
0.91667	-3
0.92500	-3
0.93333	-4
0.94167	-4
0.95000	-4
0.95833	-4
0.96667	-4
0.97500	-3
0.98333	-3
0.99167	-2
1.00000	-2
1.00833	-2
1.01667	-3
1.02500	-3
1.03333	-3
1.04167	-3
1.05000	-3
1.05833	-3
1.06667	-3
1.07500	-3
1.08333	-3
1.09167	-3
1.10000	-3
1.10833	-3
1.11667	-3
1.12500	-3
1.13333	-3
1.14167	-3
1.15000	-3
1.15833	-3
1.16667	-3
1.17500	-4
1.18333	-4
1.19167	-3
1.20000	-3
1.20833	-3
1.21667	-3
1.22500	-2
1.23333	-2
1.24167	-2
1.25000	-2
1.25833	-2
1.26667	-2
1.27500	-2
1.28333	-3
1.29167	-2
1.30000	-2
1.30833	-2
1.31667	-2
1.32500	-2
1.33333	-2
1.34167	-2
1.35000	-3
1.35833	-3
1.36667	-3
1.37500	-3
1.38333	-3
1.39167	-3
1.40000	-3
1.40833	-3
1.41667	-3
1.42500	-3
1.43333	-3
1.44167	-3
1.45000	-3
1.45833	-2
1.46667	-2
1.47500	-2
1.48333	-2
1.49167	-3
1.50000	-2
1.50833	-2
1.51667	-1
1.52500	-1
1.53333	-1
1.54167	-1
1.55000	-1
1.55833	-1
1.56667	-2
1.57500	-2
1.58333	-2
1.59167	-2
1.60000	-2
1.60833	-2
1.61667	-2
1.62500	-2
1.63333	-2
1.64167	-1
1.65000	-2
1.65833	-2
1.66667	-2
1.67500	-3
1.68333	-3
1.69167	-3
1.70000	-3
1.70833	-3
1.71667	-3
1.72500	-4
1.73333	-4
1.74167	-4
1.75000	-5
1.75833	-5
1.76667	-5
1.77500	-5
1.78333	-6
1.79167	-6
1.80000	-7
1.80833	-7
1.81667	-7
1.82500	-7
1.83333	-6
1.84167	-6
1.85000	-5
1.85833	-5
1.86667	-5
1.87500	-5
1.88333	-5
1.89167	-5
1.90000	-5
1.90833	-5
1.91667	-5
1.92500	-5
1.93333	-5
1.94167	-5
1.95000	-5
1.95833	-5
1.96667	-5
1.97500	-4
1.98333	-4
1.99167	-4
2.00000	-4
2.00833	-4
2.01667	-4
2.02500	-4
2.03333	-4
2.04167	-4
2.05000	-3
2.05833	-3
2.06667	-3
2.07500	-4
2.08333	-4
2.09167	-5
2.10000	-5
2.10833	-5
2.11667	-4
2.12500	-4
2.13333	-4
2.14167	-4
2.15000	-4
2.15833	-4
2.16667	-4
2.17500	-4
2.18333	-5
2.19167	-5
2.20000	-4
2.20833	-4
2.21667	-3
2.22500	-3
2.23333	-4
2.24167	-4
2.25000	-4
2.25833	-4
2.26667	-4
2.27500	-4
2.28333	-4
2.29167	-4
2.30000	-4
2.30833	-4
2.31667	-4
2.32500	-3
2.33333	-3
2.34167	-3
2.35000	-3
2.35833	-2
2.36667	-2
2.37500	-2
2.38333	-2
2.39167	-2
2.40000	-2
2.40833	-2
2.41667	-2
2.42500	-2
2.43333	-3
2.44167	-3
2.45000	-4
2.45833	-4
2.46667	-5
2.47500	-5
2.48333	-5
2.49167	-4
2.50000	-4
2.50833	-4
2.51667	-4
2.52500	-5
2.53333	-5
2.54167	-6
2.55000	-6
2.55833	-6
2.56667	-5
2.57500	-5
2.58333	-5
2.59167	-5
2.60000	-4
2.60833	-4
2.61667	-4
2.62500	-4
2.63333	-4
2.64167	-5
2.65000	-5
2.65833	-5
2.66667	-5
2.67500	-4
2.68333	-4
2.69167	-4
2.70000	-4
2.70833	-4
2.71667	-4
2.72500	-4
2.73333	-4
2.74167	-4
2.75000	-4
2.75833	-4
2.76667	-4
2.77500	-4
2.78333	-4
2.79167	-4
2.80000	-4
2.80833	-4
2.81667	-4
2.82500	-4
2.83333	-4
2.84167	-4
2.85000	-3
2.85833	-3
2.86667	-4
2.87500	-4
2.88333	-5
2.89167	-5
2.90000	-6
2.90833	-5
2.91667	-5
2.92500	-5
2.93333	-4
2.94167	-4
2.95000	-3
2.95833	-3
2.96667	-3
2.97500	-2
2.98333	-2
2.99167	-2
3.00000	-2
3.00833	-2
3.01667	-2
3.02500	-2
3.03333	-3
3.04167	-3
3.05000	-3
3.05833	-3
3.06667	-3
3.07500	-3
3.08333	-3
3.09167	-3
3.10000	-3
3.10833	-2
3.11667	-3
3.12500	-3
3.13333	-3
3.14167	-3
3.15000	-3
3.15833	-3
3.16667	-3
3.17500	-3
3.18333	-3
3.19167	-3
3.20000	-3
3.20833	-3
3.21667	-3
3.22500	-3
3.23333	-3
3.24167	-3
3.25000	-3
3.25833	-3
3.26667	-2
3.27500	-2
3.28333	-2
3.29167	-2
3.30000	-1
3.30833	-1
3.31667	-1
3.32500	-1
3.33333	-1
3.34167	-1
3.35000	-1
3.35833	-1
3.36667	-0
3.37500	-0
3.38333	-0
3.39167	-0
3.40000	-0
3.40833	-1
3.41667	-1
3.42500	-1
3.43333	-1
3.44167	-1
3.45000	-1
3.45833	-1
3.46667	-2
3.47500	-1
3.48333	-1
3.49167	-1
3.50000	-1
3.50833	-1
3.51667	-1
3.52500	-1
3.53333	-1
3.54167	-1
3.55000	-1
3.55833	-1
3.56667	-1
3.57500	-1
3.58333	-0
3.59167	0
3.60000	-0
3.60833	-1
3.61667	-1
3.62500	-1
3.63333	-1
3.64167	-0
3.65000	-0
3.65833	-0
3.66667	-0
3.67500	-1
3.68333	-1
3.69167	-2
3.70000	-2
3.70833	-2
3.71667	-1
3.72500	-1
3.73333	-1
3.74167	-0
3.75000	-1
3.75833	-1
3.76667	-1
3.77500	-1
3.78333	-1
3.79167	-1
3.80000	-1
3.80833	-1
3.81667	-1
3.82500	-1
3.83333	-1
3.84167	-1
3.85000	-1
3.85833	-1
3.86667	-1
3.87500	-1
3.88333	-1
3.89167	-1
3.90000	-1
3.90833	-1
3.91667	-1
3.92500	-1
3.93333	-1
3.94167	-1
3.95000	-2
3.95833	-2
3.96667	-2
3.97500	-2
3.98333	-2
3.99167	-2
4.00000	-2
4.00833	-2
4.01667	-1
4.02500	-1
4.03333	-1
4.04167	-1
4.05000	-1
4.05833	-1
4.06667	-1
4.07500	-1
4.08333	-1
4.09167	-1
4.10000	-1
4.10833	-1
4.11667	-1
4.12500	-1
4.13333	-2
4.14167	-2
4.15000	-1
4.15833	-1
4.16667	-1
4.17500	-2
4.18333	-2
4.19167	-2
4.20000	-3
4.20833	-2
4.21667	-2
4.22500	-2
4.23333	-2
4.24167	-2
4.25000	-2
4.25833	-1
4.26667	-1
4.27500	-1
4.28333	-1
4.29167	-1
4.30000	-1
4.30833	-1
4.31667	-1
4.32500	-1
4.33333	-1
4.34167	-1
4.35000	-1
4.35833	-1
4.36667	-1
4.37500	-2
4.38333	-2
4.39167	-2
4.40000	-2
4.40833	-2
4.41667	-2
4.42500	-2
4.43333	-2
4.44167	-2
4.45000	-2
4.45833	-2
4.46667	-2
4.47500	-1
4.48333	-1
4.49167	-1
4.50000	-2
4.50833	-2
4.51667	-1
4.52500	-1
4.53333	-1
4.54167	-1
4.55000	-1
4.55833	-1
4.56667	-1
4.57500	-1
4.58333	-2
4.59167	-2
4.60000	-2
4.60833	-2
4.61667	-1
4.62500	-2
4.63333	-2
4.64167	-2
4.65000	-1
4.65833	-1
4.66667	-1
4.67500	-1
4.68333	-1
4.69167	-1
4.70000	-1
4.70833	-1
4.71667	-1
4.72500	-1
4.73333	-0
4.74167	0
4.75000	0
4.75833	0
4.76667	1
4.77500	1
4.78333	1
4.79167	2
4.80000	2
4.80833	1
4.81667	1
4.82500	1
4.83333	1
4.84167	0
4.85000	0
4.85833	0
4.86667	-0
4.87500	-0
4.88333	-0
4.89167	-1
4.90000	-1
4.90833	-0
4.91667	-0
4.92500	-0
4.93333	0
4.94167	0
4.95000	0
4.95833	1
4.96667	1
4.97500	1
4.98333	0
4.99167	0
5.00000	0
5.00833	0
5.01667	1
5.02500	1
5.03333	0
5.04167	0
5.05000	0
5.05833	0
5.06667	0
5.07500	0
5.08333	-0
5.09167	-1
5.10000	-1
5.10833	-0
5.11667	-0
5.12500	-0
5.13333	0
5.14167	0
5.15000	0
5.15833	0
5.16667	1
5.17500	1
5.18333	0
5.19167	0
5.20000	-0
5.20833	-0
5.21667	-0
5.22500	0
5.23333	0
5.24167	0
5.25000	-0
5.25833	-0
5.26667	-0
5.27500	0
5.28333	0
5.29167	0
5.30000	1
5.30833	1
5.31667	0
5.32500	-0
5.33333	-0
5.34167	0
5.35000	0
5.35833	1
5.36667	1
5.37500	1
5.38333	1
5.39167	1
5.40000	1
5.40833	1
5.41667	1
5.42500	1
5.43333	0
5.44167	0
5.45000	1
5.45833	1
5.46667	1
5.47500	2
5.48333	2
5.49167	2
5.50000	2
5.50833	2
5.51667	2
5.52500	2
5.53333	1
5.54167	1
5.55000	1
5.55833	1
5.56667	1
5.57500	2
5.58333	2
5.59167	2
5.60000	2
5.60833	3
5.61667	3
5.62500	3
5.63333	3
5.64167	3
5.65000	3
5.65833	2
5.66667	2
5.67500	1
5.68333	1
5.69167	1
5.70000	0
5.70833	0
5.71667	1
5.72500	1
5.73333	1
5.74167	1
5.75000	1
5.75833	1
5.76667	1
5.77500	0
5.78333	0
5.79167	0
5.80000	0
5.80833	0
5.81667	0
5.82500	0
5.83333	0
5.84167	-0
5.85000	-1
5.85833	-1
5.86667	-1
5.87500	-1
5.88333	-1
5.89167	-1
5.90000	-1
5.90833	-2
5.91667	-2
5.92500	-2
5.93333	-2
5.94167	-2
5.95000	-2
5.95833	-2
5.96667	-2
5.97500	-3
5.98333	-3
5.99167	-3
6.00000	-3
6.00833	-3
6.01667	-3
6.02500	-3
6.03333	-3
6.04167	-3
6.05000	-3
6.05833	-3
6.06667	-3
6.07500	-4
6.08333	-4
6.09167	-4
6.10000	-5
6.10833	-5
6.11667	-5
6.12500	-5
6.13333	-5
6.14167	-5
6.15000	-4
6.15833	-4
6.16667	-3
6.17500	-3
6.18333	-2
6.19167	-3
6.20000	-3
6.20833	-3
6.21667	-3
6.22500	-4
6.23333	-4
6.24167	-4
6.25000	-5
6.25833	-5
6.26667	-4
6.27500	-4
6.28333	-4
6.29167	-3
6.30000	-3
6.30833	-3
6.31667	-3
6.32500	-3
6.33333	-3
6.34167	-2
6.35000	-2
6.35833	-2
6.36667	-3
6.37500	-3
6.38333	-3
6.39167	-3
6.40000	-2
6.40833	-2
6.41667	-2
6.42500	-2
6.43333	-1
6.44167	-1
6.45000	-1
6.45833	-1
6.46667	-1
6.47500	-1
6.48333	-2
6.49167	-2
6.50000	-1
6.50833	-2
6.51667	-2
6.52500	-2
6.53333	-2
6.54167	-2
6.55000	-2
6.55833	-2
6.56667	-2
6.57500	-2
6.58333	-2
6.59167	-2
6.60000	-2
6.60833	-2
6.61667	-2
6.62500	-2
6.63333	-2
6.64167	-2
6.65000	-1
6.65833	-1
6.66667	-1
6.67500	-1
6.68333	-1
6.69167	-1
6.70000	-1
6.70833	-1
6.71667	-2
6.72500	-2
6.73333	-2
6.74167	-2
6.75000	-2
6.75833	-2
6.76667	-3
6.77500	-3
6.78333	-3
6.79167	-3
6.80000	-3
6.80833	-3
6.81667	-3
6.82500	-3
6.83333	-3
6.84167	-3
6.85000	-3
6.85833	-3
6.86667	-2
6.87500	-2
6.88333	-3
6.89167	-3
6.90000	-3
6.90833	-3
6.91667	-4
6.92500	-4
6.93333	-4
6.94167	-5
6.95000	-5
6.95833	-5
6.96667	-5
6.97500	-5
6.98333	-5
6.99167	-5
7.00000	-5
7.00833	-5
7.01667	-5
7.02500	-5
7.03333	-5
7.04167	-4
7.05000	-4
7.05833	-3
7.06667	-3
7.07500	-3
7.08333	-3
7.09167	-3
7.10000	-3
7.10833	-2
7.11667	-1
7.12500	-1
7.13333	-1
7.14167	-2
7.15000	-2
7.15833	-2
7.16667	-2
7.17500	-2
7.18333	-2
7.19167	-2
7.20000	-2
7.20833	-2
7.21667	-2
7.22500	-1
7.23333	-1
7.24167	0
7.25000	1
7.25833	1
7.26667	1
7.27500	1
7.28333	1
7.29167	1
7.30000	1
7.30833	0
7.31667	0
7.32500	1
7.33333	1
7.34167	1
7.35000	2
7.35833	2
7.36667	3
7.37500	2
7.38333	2
7.39167	2
7.40000	2
7.40833	2
7.41667	3
7.42500	3
7.43333	3
7.44167	3
7.45000	3
7.45833	3
7.46667	3
7.47500	3
7.48333	3
7.49167	3
7.50000	2
7.50833	2
7.51667	2
7.52500	3
7.53333	3
7.54167	2
7.55000	2
7.55833	2
7.56667	1
7.57500	1
7.58333	1
7.59167	1
7.60000	1
7.60833	0
7.61667	-0
7.62500	-0
7.63333	-0
7.64167	-1
7.65000	-1
7.65833	-0
7.66667	-1
7.67500	-1
7.68333	-1
7.69167	-1
7.70000	-1
7.70833	-1
7.71667	-1
7.72500	-1
7.73333	-1
7.74167	-1
7.75000	-1
7.75833	-1
7.76667	-1
7.77500	-1
7.78333	-1
7.79167	-2
7.80000	-3
7.80833	-4
7.81667	-5
7.82500	-7
7.83333	-9
7.84167	-12
7.85000	-14
7.85833	-18
7.86667	-21
7.87500	-25
7.88333	-29
7.89167	-32
7.90000	-36
7.90833	-40
7.91667	-43
7.92500	-45
7.93333	-47
7.94167	-48
7.95000	-49
7.95833	-49
7.96667	-49
7.97500	-48
7.98333	-46
7.99167	-44
8.00000	-42
8.00833	-39
8.01667	-36
8.02500	-32
8.03333	-28
8.04167	-24
8.05000	-20
8.05833	-16
8.06667	-11
8.07500	-7
8.08333	-3
8.09167	2
8.10000	6
8.10833	11
8.11667	15
8.12500	20
8.13333	26
8.14167	31
8.15000	37
8.15833	42
8.16667	46
8.17500	51
8.18333	56
8.19167	60
8.20000	63
8.20833	66
8.21667	69
8.22500	71
8.23333	72
8.24167	72
8.25000	71
8.25833	69
8.26667	66
8.27500	63
8.28333	59
8.29167	55
8.30000	50
8.30833	45
8.31667	40
8.32500	35
8.33333	29
8.34167	24
8.35000	19
8.35833	14
8.36667	9
8.37500	5
8.38333	1
8.39167	-2
8.40000	-5
8.40833	-8
8.41667	-10
8.42500	-12
8.43333	-13
8.44167	-14
8.45000	-14
8.45833	-14
8.46667	-13
8.47500	-12
8.48333	-10
8.49167	-8
8.50000	-6
8.50833	-3
8.51667	-0
8.52500	3
8.53333	7
8.54167	11
8.55000	14
8.55833	18
8.56667	22
8.57500	26
8.58333	29
8.59167	32
8.60000	34
8.60833	37
8.61667	39
8.62500	42
8.63333	43
8.64167	45
8.65000	46
8.65833	47
8.66667	48
8.67500	48
8.68333	47
8.69167	47
8.70000	46
8.70833	45
8.71667	44
8.72500	43
8.73333	41
8.74167	39
8.75000	38
8.75833	36
8.76667	34
8.77500	32
8.78333	30
8.79167	28
8.80000	26
8.80833	24
8.81667	22
8.82500	20
8.83333	19
8.84167	17
8.85000	15
8.85833	14
8.86667	13
8.87500	11
8.88333	9
8.89167	8
8.90000	7
8.90833	5
8.91667	4
8.92500	3
8.93333	1
8.94167	0
8.95000	-1
8.95833	-1
8.96667	-2
8.97500	-2
8.98333	-2
8.99167	-1
9.00000	-1
9.00833	-1
9.01667	-1
9.02500	-1
9.03333	-1
9.04167	-1
9.05000	-2
9.05833	-2
9.06667	-2
9.07500	-2
9.08333	-2
9.09167	-3
9.10000	-3
9.10833	-3
9.11667	-3
9.12500	-3
9.13333	-2
9.14167	-2
9.15000	-1
9.15833	-1
9.16667	0
9.17500	1
9.18333	2
9.19167	4
9.20000	6
9.20833	8
9.21667	10
9.22500	12
9.23333	15
9.24167	17
9.25000	20
9.25833	24
9.26667	28
9.27500	32
9.28333	36
9.29167	41
9.30000	45
9.30833	49
9.31667	54
9.32500	58
9.33333	62
9.34167	66
9.35000	70
9.35833	74
9.36667	77
9.37500	80
9.38333	83
9.39167	85
9.40000	87
9.40833	89
9.41667	90
9.42500	92
9.43333	93
9.44167	94
9.45000	95
9.45833	96
9.46667	97
9.47500	98
9.48333	98
9.49167	98
9.50000	98
9.50833	98
9.51667	97
9.52500	96
9.53333	95
9.54167	94
9.55000	92
9.55833	91
9.56667	89
9.57500	87
9.58333	85
9.59167	83
9.60000	81
9.60833	79
9.61667	76
9.62500	74
9.63333	71
9.64167	68
9.65000	65
9.65833	62
9.66667	59
9.67500	57
9.68333	54
9.69167	51
9.70000	49
9.70833	46
9.71667	43
9.72500	40
9.73333	37
9.74167	34
9.75000	32
9.75833	29
9.76667	27
9.77500	25
9.78333	23
9.79167	21
9.80000	19
9.80833	18
9.81667	16
9.82500	15
9.83333	13
9.84167	12
9.85000	12
9.85833	11
9.86667	11
9.87500	11
9.88333	11
9.89167	10
9.90000	10
9.90833	10
9.91667	9
9.92500	10
9.93333	10
9.94167	10
9.95000	10
9.95833	10
9.96667	10
9.97500	10
9.98333	9
9.99167	9
10.00000	9
10.00833	9
10.01667	9
10.02500	10
10.03333	10
10.04167	10
10.05000	10
10.05833	10
10.06667	11
10.07500	11
10.08333	11
10.09167	12
10.10000	12
10.10833	13
10.11667	14
10.12500	14
10.13333	14
10.14167	14
10.15000	14
10.15833	14
10.16667	14
10.17500	15
10.18333	14
10.19167	15
10.20000	15
10.20833	15
10.21667	15
10.22500	15
10.23333	16
10.24167	16
10.25000	15
10.25833	15
10.26667	14
10.27500	14
10.28333	14
10.29167	14
10.30000	14
10.30833	14
10.31667	13
10.32500	13
10.33333	13
10.34167	13
10.35000	14
10.35833	14
10.36667	14
10.37500	14
10.38333	14
10.39167	13
10.40000	13
10.40833	13
10.41667	13
10.42500	13
10.43333	13
10.44167	13
10.45000	13
10.45833	14
10.46667	14
10.47500	14
10.48333	14
10.49167	14
10.50000	14
10.50833	14
10.51667	14
10.52500	14
10.53333	14
10.54167	14
10.55000	14
10.55833	14
10.56667	15
10.57500	15
10.58333	15
10.59167	15
10.60000	15
10.60833	15
10.61667	15
10.62500	15
10.63333	15
10.64167	15
10.65000	16
10.65833	16
10.66667	16
10.67500	16
10.68333	16
10.69167	16
10.70000	16
10.70833	16
10.71667	16
10.72500	16
10.73333	16
10.74167	15
10.75000	15
10.75833	16
10.76667	16
10.77500	15
10.78333	15
10.79167	15
10.80000	14
10.80833	14
10.81667	14
10.82500	14
10.83333	14
10.84167	14
10.85000	14
10.85833	15
10.86667	16
10.87500	18
10.88333	19
10.89167	21
10.90000	22
10.90833	24
10.91667	27
10.92500	30
10.93333	33
10.94167	38
10.95000	43
10.95833	50
10.96667	58
10.97500	68
10.98333	79
10.99167	93
11.00000	110
11.00833	131
11.01667	155
11.02500	184
11.03333	220
11.04167	263
11.05000	317
11.05833	383
11.06667	464
11.07500	563
11.08333	686
11.09167	836
11.10000	1021
11.10833	1246
11.11667	1520
11.12500	1852
11.13333	2250
11.14167	2725
11.15000	3289
11.15833	3951
11.16667	4724
11.17500	5617
11.18333	6641
11.19167	7803
11.20000	9111
11.20833	10568
11.21667	12175
11.22500	13932
11.23333	15831
11.24167	17863
11.25000	20015
11.25833	22268
11.26667	24601
11.27500	26988
11.28333	29403
11.29167	31813
11.30000	34185
11.30833	36488
11.31667	38689
11.32500	40755
11.33333	42658
11.34167	44369
11.35000	45868
11.35833	47133
11.36667	48151
11.37500	48912
11.38333	49409
11.39167	49644
11.40000	49619
11.40833	49344
11.41667	48830
11.42500	48093
11.43333	47150
11.44167	46022
11.45000	44728
11.45833	43292
11.46667	41734
11.47500	40078
11.48333	38344
11.49167	36554
11.50000	34727
11.50833	32881
11.51667	31034
11.52500	29199
11.53333	27391
11.54167	25621
11.55000	23899
11.55833	22233
11.56667	20629
11.57500	19095
11.58333	17632
11.59167	16244
11.60000	14933
11.60833	13699
11.61667	12542
11.62500	11461
11.63333	10455
11.64167	9520
11.65000	8656
11.65833	7857
11.66667	7124
11.67500	6450
11.68333	5834
11.69167	5272
11.70000	4759
11.70833	4293
11.71667	3870
11.72500	3486
11.73333	3139
11.74167	2826
11.75000	2545
11.75833	2291
11.76667	2063
11.77500	1858
11.78333	1674
11.79167	1510
11.80000	1362
11.80833	1231
11.81667	1113
11.82500	1008
11.83333	914
11.84167	831
11.85000	756
11.85833	690
11.86667	631
11.87500	578
11.88333	532
11.89167	490
11.90000	454
11.90833	421
11.91667	392
11.92500	366
11.93333	343
11.94167	322
11.95000	303
11.95833	285
11.96667	270
11.97500	257
11.98333	245
11.99167	234
12.00000	224
12.00833	216
12.01667	209
12.02500	203
12.03333	197
12.04167	192
12.05000	189
12.05833	186
12.06667	183
12.07500	181
12.08333	180
12.09167	179
12.10000	178
12.10833	178
12.11667	178
12.12500	178
12.13333	179
12.14167	180
12.15000	182
12.15833	183
12.16667	185
12.17500	187
12.18333	189
12.19167	191
12.20000	191
12.20833	192
12.21667	192
12.22500	191
12.23333	190
12.24167	188
12.25000	186
12.25833	184
12.26667	181
12.27500	178
12.28333	175
12.29167	171
12.30000	166
12.30833	162
12.31667	157
12.32500	151
12.33333	146
12.34167	140
12.35000	135
12.35833	129
12.36667	123
12.37500	118
12.38333	112
12.39167	108
12.40000	103
12.40833	98
12.41667	93
12.42500	88
12.43333	84
12.44167	80
12.45000	76
12.45833	72
12.46667	69
12.47500	65
12.48333	61
12.49167	57
12.50000	54
12.50833	51
12.51667	49
12.52500	46
12.53333	43
12.54167	41
12.55000	39
12.55833	38
12.56667	37
12.57500	35
12.58333	34
12.59167	32
12.60000	31
12.60833	30
12.61667	29
12.62500	28
12.63333	27
12.64167	27
12.65000	26
12.65833	26
12.66667	26
12.67500	26
12.68333	25
12.69167	25
12.70000	24
12.70833	23
12.71667	23
12.72500	23
12.73333	22
12.74167	22
12.75000	22
12.75833	22
12.76667	21
12.77500	21
12.78333	20
12.79167	20
12.80000	20
12.80833	20
12.81667	20
12.82500	20
12.83333	19
12.84167	19
12.85000	19
12.85833	19
12.86667	19
12.87500	18
12.88333	18
12.89167	18
12.90000	17
12.90833	17
12.91667	17
12.92500	16
12.93333	16
12.94167	15
12.95000	14
12.95833	14
12.96667	13
12.97500	13
12.98333	13
12.99167	13
13.00000	13
13.00833	12
13.01667	12
13.02500	12
13.03333	11
13.04167	11
13.05000	10
13.05833	10
13.06667	10
13.07500	10
13.08333	10
13.09167	9
13.10000	9
13.10833	9
13.11667	9
13.12500	9
13.13333	9
13.14167	9
13.15000	9
13.15833	10
13.16667	10
13.17500	10
13.18333	10
13.19167	9
13.20000	9
13.20833	9
13.21667	9
13.22500	9
13.23333	8
13.24167	8
13.25000	8
13.25833	8
13.26667	8
13.27500	8
13.28333	8
13.29167	8
13.30000	8
13.30833	8
13.31667	7
13.32500	7
13.33333	7
13.34167	7
13.35000	7
13.35833	6
13.36667	6
13.37500	6
13.38333	5
13.39167	5
13.40000	5
13.40833	4
13.41667	4
13.42500	5
13.43333	5
13.44167	5
13.45000	5
13.45833	5
13.46667	5
13.47500	5
13.48333	5
13.49167	5
13.50000	4
13.50833	4
13.51667	4
13.52500	4
13.53333	5
13.54167	5
13.55000	5
13.55833	5
13.56667	5
13.57500	5
13.58333	5
13.59167	5
13.60000	5
13.60833	5
13.61667	5
13.62500	6
13.63333	6
13.64167	6
13.65000	7
13.65833	7
13.66667	7
13.67500	7
13.68333	7
13.69167	7
13.70000	7
13.70833	7
13.71667	7
13.72500	8
13.73333	8
13.74167	8
13.75000	9
13.75833	9
13.76667	9
13.77500	9
13.78333	9
13.79167	9
13.80000	9
13.80833	10
13.81667	10
13.82500	10
13.83333	10
13.84167	9
13.85000	9
13.85833	9
13.86667	9
13.87500	9
13.88333	9
13.89167	8
13.90000	8
13.90833	8
13.91667	9
13.92500	9
13.93333	9
13.94167	9
13.95000	9
13.95833	9
13.96667	9
13.97500	9
13.98333	9
13.99167	9
14.00000	9
14.00833	9
14.01667	9
14.02500	9
14.03333	9
14.04167	10
14.05000	10
14.05833	10
14.06667	10
14.07500	10
14.08333	10
14.09167	10
14.10000	10
14.10833	10
14.11667	10
14.12500	10
14.13333	11
14.14167	11
14.15000	12
14.15833	12
14.16667	13
14.17500	13
14.18333	14
14.19167	15
14.20000	15
14.20833	16
14.21667	17
14.22500	18
14.23333	20
14.24167	21
14.25000	23
14.25833	24
14.26667	26
14.27500	27
14.28333	29
14.29167	30
14.30000	32
14.30833	34
14.31667	36
14.32500	38
14.33333	39
14.34167	41
14.35000	42
14.35833	43
14.36667	44
14.37500	45
14.38333	46
14.39167	48
14.40000	49
14.40833	50
14.41667	51
14.42500	52
14.43333	53
14.44167	55
14.45000	56
14.45833	57
14.46667	57
14.47500	58
14.48333	58
14.49167	58
14.50000	59
14.50833	59
14.51667	58
14.52500	58
14.53333	58
14.54167	58
14.55000	57
14.55833	57
14.56667	57
14.57500	57
14.58333	58
14.59167	59
14.60000	59
14.60833	60
14.61667	60
14.62500	60
14.63333	61
14.64167	61
14.65000	62
14.65833	62
14.66667	63
14.67500	64
14.68333	65
14.69167	66
14.70000	67
14.70833	68
14.71667	69
14.72500	70
14.73333	71
14.74167	72
14.75000	74
14.75833	76
14.76667	77
14.77500	79
14.78333	80
14.79167	82
14.80000	84
14.80833	86
14.81667	88
14.82500	90
14.83333	92
14.84167	94
14.85000	96
14.85833	98
14.86667	101
14.87500	103
14.88333	105
14.89167	107
14.90000	109
14.90833	112
14.91667	115
14.92500	118
14.93333	121
14.94167	124
14.95000	127
14.95833	130
14.96667	133
14.97500	137
14.98333	141
14.99167	144
15.00000	148
15.00833	152
15.01667	156
15.02500	161
15.03333	166
15.04167	171
15.05000	177
15.05833	183
15.06667	190
15.07500	197
15.08333	204
15.09167	212
15.10000	221
15.10833	231
15.11667	243
15.12500	255
15.13333	269
15.14167	285
15.15000	302
15.15833	322
15.16667	345
15.17500	371
15.18333	401
15.19167	435
15.20000	474
15.20833	519
15.21667	571
15.22500	631
15.23333	702
15.24167	783
15.25000	878
15.25833	988
15.26667	1115
15.27500	1261
15.28333	1429
15.29167	1622
15.30000	1842
15.30833	2092
15.31667	2374
15.32500	2692
15.33333	3047
15.34167	3443
15.35000	3881
15.35833	4364
15.36667	4891
15.37500	5465
15.38333	6085
15.39167	6750
15.40000	7458
15.40833	8208
15.41667	8996
15.42500	9818
15.43333	10669
15.44167	11543
15.45000	12434
15.45833	13335
15.46667	14237
15.47500	15132
15.48333	16011
15.49167	16866
15.50000	17688
15.50833	18470
15.51667	19202
15.52500	19877
15.53333	20489
15.54167	21032
15.55000	21500
15.55833	21891
15.56667	22200
15.57500	22426
15.58333	22568
15.59167	22626
15.60000	22602
15.60833	22498
15.61667	22317
15.62500	22063
15.63333	21740
15.64167	21353
15.65000	20908
15.65833	20410
15.66667	19866
15.67500	19281
15.68333	18662
15.69167	18014
15.70000	17343
15.70833	16655
15.71667	15954
15.72500	15247
15.73333	14537
15.74167	13829
15.75000	13127
15.75833	12434
15.76667	11754
15.77500	11089
15.78333	10442
15.79167	9814
15.80000	9208
15.80833	8624
15.81667	8063
15.82500	7527
15.83333	7015
15.84167	6529
15.85000	6067
15.85833	5629
15.86667	5217
15.87500	4829
15.88333	4464
15.89167	4122
15.90000	3802
15.90833	3504
15.91667	3226
15.92500	2968
15.93333	2728
15.94167	2506
15.95000	2300
15.95833	2110
15.96667	1935
15.97500	1773
15.98333	1624
15.99167	1488
16.00000	1363
16.00833	1248
16.01667	1143
16.02500	1047
16.03333	960
16.04167	879
16.05000	806
16.05833	739
16.06667	678
16.07500	623
16.08333	572
16.09167	527
16.10000	485
16.10833	447
16.11667	413
16.12500	381
16.13333	353
16.14167	327
16.15000	303
16.15833	281
16.16667	261
16.17500	243
16.18333	227
16.19167	213
16.20000	200
16.20833	188
16.21667	176
16.22500	166
16.23333	156
16.24167	148
16.25000	140
16.25833	133
16.26667	126
16.27500	120
16.28333	115
16.29167	109
16.30000	105
16.30833	100
16.31667	96
16.32500	92
16.33333	88
16.34167	85
16.35000	82
16.35833	79
16.36667	77
16.37500	74
16.38333	72
16.39167	69
16.40000	67
16.40833	65
16.41667	63
16.42500	62
16.43333	60
16.44167	58
16.45000	57
16.45833	55
16.46667	54
16.47500	53
16.48333	52
16.49167	51
16.50000	51
16.50833	50
16.51667	49
16.52500	48
16.53333	47
16.54167	45
16.55000	44
16.55833	43
16.56667	42
16.57500	41
16.58333	40
16.59167	39
16.60000	38
16.60833	38
16.61667	37
16.62500	36
16.63333	36
16.64167	35
16.65000	35
16.65833	35
16.66667	35
16.67500	35
16.68333	35
16.69167	34
16.70000	33
16.70833	33
16.71667	32
16.72500	32
16.73333	32
16.74167	32
16.75000	31
16.75833	31
16.76667	30
16.77500	30
16.78333	30
16.79167	29
16.80000	29
16.80833	29
16.81667	29
16.82500	28
16.83333	28
16.84167	28
16.85000	28
16.85833	27
16.86667	26
16.87500	26
16.88333	25
16.89167	25
16.90000	25
16.90833	26
16.91667	25
16.92500	25
16.93333	25
16.94167	25
16.95000	24
16.95833	24
16.96667	24
16.97500	24
16.98333	23
16.99167	23
17.00000	23
17.00833	22
17.01667	22
17.02500	21
17.03333	21
17.04167	21
17.05000	22
17.05833	22
17.06667	22
17.07500	22
17.08333	22
17.09167	21
17.10000	21
17.10833	21
17.11667	21
17.12500	21
17.13333	20
17.14167	20
17.15000	19
17.15833	19
17.16667	18
17.17500	18
17.18333	18
17.19167	17
17.20000	17
17.20833	18
17.21667	18
17.22500	18
17.23333	18
17.24167	18
17.25000	17
17.25833	17
17.26667	16
17.27500	16
17.28333	16
17.29167	16
17.30000	16
17.30833	16
17.31667	15
17.32500	15
17.33333	15
17.34167	15
17.35000	15
17.35833	15
17.36667	15
17.37500	15
17.38333	15
17.39167	15
17.40000	16
17.40833	16
17.41667	16
17.42500	17
17.43333	17
17.44167	16
17.45000	16
17.45833	17
17.46667	17
17.47500	17
17.48333	17
17.49167	17
17.50000	17
17.50833	18
17.51667	18
17.52500	19
17.53333	19
17.54167	19
17.55000	20
17.55833	21
17.56667	21
17.57500	22
17.58333	23
17.59167	24
17.60000	25
17.60833	26
17.61667	28
17.62500	29
17.63333	31
17.64167	33
17.65000	35
17.65833	37
17.66667	39
17.67500	42
17.68333	45
17.69167	48
17.70000	52
17.70833	56
17.71667	61
17.72500	66
17.73333	72
17.74167	79
17.75000	87
17.75833	96
17.76667	106
17.77500	117
17.78333	130
17.79167	145
17.80000	162
17.80833	182
17.81667	204
17.82500	229
17.83333	259
17.84167	292
17.85000	329
17.85833	371
17.86667	419
17.87500	474
17.88333	536
17.89167	607
17.90000	686
17.90833	776
17.91667	876
17.92500	988
17.93333	1114
17.94167	1253
17.95000	1408
17.95833	1579
17.96667	1766
17.97500	1971
17.98333	2193
17.99167	2434
18.00000	2693
18.00833	2971
18.01667	3267
18.02500	3582
18.03333	3914
18.04167	4262
18.05000	4624
18.05833	5000
18.06667	5388
18.07500	5784
18.08333	6186
18.09167	6592
18.10000	7000
18.10833	7404
18.11667	7804
18.12500	8196
18.13333	8577
18.14167	8943
18.15000	9291
18.15833	9619
18.16667	9924
18.17500	10204
18.18333	10456
18.19167	10679
18.20000	10870
18.20833	11030
18.21667	11156
18.22500	11249
18.23333	11308
18.24167	11333
18.25000	11325
18.25833	11284
18.26667	11213
18.27500	11111
18.28333	10980
18.29167	10822
18.30000	10639
18.30833	10433
18.31667	10206
18.32500	9960
18.33333	9696
18.34167	9419
18.35000	9129
18.35833	8829
18.36667	8521
18.37500	8206
18.38333	7888
18.39167	7567
18.40000	7246
18.40833	6926
18.41667	6608
18.42500	6294
18.43333	5984
18.44167	5680
18.45000	5382
18.45833	5092
18.46667	4810
18.47500	4538
18.48333	4275
18.49167	4021
18.50000	3777
18.50833	3544
18.51667	3321
18.52500	3108
18.53333	2905
18.54167	2712
18.55000	2530
18.55833	2358
18.56667	2195
18.57500	2041
18.58333	1897
18.59167	1761
18.60000	1634
18.60833	1514
18.61667	1403
18.62500	1298
18.63333	1201
18.64167	1111
18.65000	1026
18.65833	948
18.66667	875
18.67500	808
18.68333	746
18.69167	689
18.70000	636
18.70833	587
18.71667	541
18.72500	499
18.73333	460
18.74167	425
18.75000	392
18.75833	363
18.76667	335
18.77500	310
18.78333	287
18.79167	266
18.80000	246
18.80833	228
18.81667	212
18.82500	198
18.83333	184
18.84167	171
18.85000	160
18.85833	149
18.86667	140
18.87500	131
18.88333	123
18.89167	115
18.90000	109
18.90833	102
18.91667	97
18.92500	92
18.93333	87
18.94167	82
18.95000	79
18.95833	76
18.96667	73
18.97500	70
18.98333	67
18.99167	65
19.00000	62
19.00833	60
19.01667	59
19.02500	57
19.03333	56
19.04167	55
19.05000	53
19.05833	52
19.06667	50
19.07500	49
19.08333	48
19.09167	47
19.10000	46
19.10833	45
19.11667	44
19.12500	44
19.13333	43
19.14167	42
19.15000	41
19.15833	41
19.16667	40
19.17500	39
19.18333	38
19.19167	37
19.20000	37
19.20833	35
19.21667	35
19.22500	34
19.23333	34
19.24167	34
19.25000	33
19.25833	33
19.26667	33
19.27500	33
19.28333	32
19.29167	32
19.30000	32
19.30833	32
19.31667	32
19.32500	32
19.33333	31
19.34167	31
19.35000	31
19.35833	30
19.36667	29
19.37500	29
19.38333	28
19.39167	28
19.40000	28
19.40833	28
19.41667	28
19.42500	28
19.43333	27
19.44167	27
19.45000	26
19.45833	26
19.46667	26
19.47500	25
19.48333	25
19.49167	25
19.50000	24
19.50833	24
19.51667	24
19.52500	24
19.53333	24
19.54167	23
19.55000	23
19.55833	23
19.56667	23
19.57500	23
19.58333	23
19.59167	23
19.60000	22
19.60833	22
19.61667	22
19.62500	22
19.63333	21
19.64167	21
19.65000	21
19.65833	20
19.66667	20
19.67500	19
19.68333	19
19.69167	19
19.70000	20
19.70833	20
19.71667	20
19.72500	20
19.73333	20
19.74167	19
19.75000	19
19.75833	19
19.76667	18
19.77500	18
19.78333	18
19.79167	18
19.80000	18
19.80833	18
19.81667	18
19.82500	18
19.83333	17
19.84167	17
19.85000	17
19.85833	17
19.86667	17
19.87500	17
19.88333	17
19.89167	17
19.90000	17
19.90833	18
19.91667	18
19.92500	18
19.93333	18
19.94167	17
19.95000	17
19.95833	17
19.96667	17
19.97500	17
19.98333	17
19.99167	17
20.00000	16
20.00833	16
20.01667	16
20.02500	16
20.03333	16
20.04167	16
20.05000	16
20.05833	17
20.06667	17
20.07500	16
20.08333	16
20.09167	16
20.10000	16
20.10833	16
20.11667	16
20.12500	16
20.13333	16
20.14167	16
20.15000	17
20.15833	17
20.16667	17
20.17500	17
20.18333	17
20.19167	17
20.20000	17
20.20833	17
20.21667	17
20.22500	17
20.23333	17
20.24167	17
20.25000	17
20.25833	17
20.26667	17
20.27500	18
20.28333	18
20.29167	18
20.30000	18
20.30833	18
20.31667	18
20.32500	17
20.33333	17
20.34167	17
20.35000	17
20.35833	17
20.36667	17
20.37500	17
20.38333	17
20.39167	17
20.40000	18
20.40833	18
20.41667	18
20.42500	18
20.43333	18
20.44167	19
20.45000	18
20.45833	18
20.46667	18
20.47500	18
20.48333	18
20.49167	18
20.50000	19
20.50833	20
20.51667	20
20.52500	20
20.53333	20
20.54167	20
20.55000	20
20.55833	20
20.56667	19
20.57500	19
20.58333	19
20.59167	19
20.60000	18
20.60833	18
20.61667	18
20.62500	18
20.63333	18
20.64167	18
20.65000	18
20.65833	18
20.66667	18
20.67500	18
20.68333	18
20.69167	19
20.70000	19
20.70833	19
20.71667	19
20.72500	19
20.73333	19
20.74167	19
20.75000	19
20.75833	19
20.76667	19
20.77500	19
20.78333	19
20.79167	19
20.80000	19
20.80833	20
20.81667	20
20.82500	20
20.83333	20
20.84167	20
20.85000	19
20.85833	19
20.86667	19
20.87500	19
20.88333	18
20.89167	18
20.90000	18
20.90833	18
20.91667	18
20.92500	18
20.93333	18
20.94167	18
20.95000	18
20.95833	18
20.96667	19
20.97500	19
20.98333	19
20.99167	20
21.00000	20
21.00833	19
21.01667	19
21.02500	19
21.03333	20
21.04167	20
21.05000	20
21.05833	21
21.06667	21
21.07500	21
21.08333	21
21.09167	22
21.10000	22
21.10833	22
21.11667	22
21.12500	21
21.13333	21
21.14167	21
21.15000	21
21.15833	21
21.16667	21
21.17500	21
21.18333	21
21.19167	22
21.20000	22
21.20833	21
21.21667	21
21.22500	21
21.23333	21
21.24167	22
21.25000	22
21.25833	22
21.26667	22
21.27500	22
21.28333	21
21.29167	21
21.30000	22
21.30833	21
21.31667	21
21.32500	22
21.33333	22
21.34167	22
21.35000	22
21.35833	22
21.36667	22
21.37500	22
21.38333	22
21.39167	21
21.40000	21
21.40833	21
21.41667	21
21.42500	20
21.43333	20
21.44167	20
21.45000	20
21.45833	20
21.46667	20
21.47500	20
21.48333	20
21.49167	21
21.50000	21
21.50833	20
21.51667	20
21.52500	19
21.53333	19
21.54167	19
21.55000	19
21.55833	19
21.56667	20
21.57500	20
21.58333	20
21.59167	20
21.60000	20
21.60833	20
21.61667	19
21.62500	19
21.63333	19
21.64167	19
21.65000	19
21.65833	19
21.66667	19
21.67500	19
21.68333	19
21.69167	19
21.70000	18
21.70833	19
21.71667	19
21.72500	18
21.73333	18
21.74167	18
21.75000	18
21.75833	18
21.76667	18
21.77500	17
21.78333	17
21.79167	17
21.80000	16
21.80833	15
21.81667	15
21.82500	15
21.83333	15
21.84167	15
21.85000	15
21.85833	15
21.86667	15
21.87500	14
21.88333	13
21.89167	12
21.90000	11
21.90833	11
21.91667	10
21.92500	9
21.93333	8
21.94167	6
21.95000	5
21.95833	4
21.96667	3
21.97500	1
21.98333	-0
21.99167	-2
22.00000	-4
22.00833	-6
22.01667	-8
22.02500	-10
22.03333	-13
22.04167	-15
22.05000	-17
22.05833	-20
22.06667	-22
22.07500	-25
22.08333	-28
22.09167	-31
22.10000	-34
22.10833	-37
22.11667	-40
22.12500	-43
22.13333	-46
22.14167	-49
22.15000	-52
22.15833	-55
22.16667	-59
22.17500	-62
22.18333	-65
22.19167	-68
22.20000	-71
22.20833	-73
22.21667	-76
22.22500	-78
22.23333	-81
22.24167	-83
22.25000	-84
22.25833	-86
22.26667	-88
22.27500	-90
22.28333	-91
22.29167	-93
22.30000	-93
22.30833	-93
22.31667	-94
22.32500	-94
22.33333	-94
22.34167	-94
22.35000	-94
22.35833	-93
22.36667	-93
22.37500	-92
22.38333	-91
22.39167	-90
22.40000	-88
22.40833	-87
22.41667	-85
22.42500	-83
22.43333	-81
22.44167	-79
22.45000	-76
22.45833	-74
22.46667	-72
22.47500	-69
22.48333	-67
22.49167	-65
22.50000	-63
22.50833	-60
22.51667	-58
22.52500	-55
22.53333	-53
22.54167	-50
22.55000	-47
22.55833	-44
22.56667	-41
22.57500	-39
22.58333	-36
22.59167	-34
22.60000	-32
22.60833	-30
22.61667	-28
22.62500	-25
22.63333	-23
22.64167	-21
22.65000	-19
22.65833	-16
22.66667	-14
22.67500	-12
22.68333	-10
22.69167	-8
22.70000	-7
22.70833	-5
22.71667	-4
22.72500	-3
22.73333	-2
22.74167	-0
22.75000	1
22.75833	3
22.76667	4
22.77500	5
22.78333	6
22.79167	7
22.80000	8
22.80833	8
22.81667	8
22.82500	9
22.83333	9
22.84167	10
22.85000	11
22.85833	11
22.86667	11
22.87500	12
22.88333	12
22.89167	13
22.90000	13
22.90833	13
22.91667	14
22.92500	15
22.93333	15
22.94167	15
22.95000	16
22.95833	16
22.96667	16
22.97500	17
22.98333	17
22.99167	17
23.00000	17
23.00833	18
23.01667	18
23.02500	19
23.03333	19
23.04167	19
23.05000	19
23.05833	19
23.06667	19
23.07500	19
23.08333	19
23.09167	19
23.10000	19
23.10833	19
23.11667	19
23.12500	19
23.13333	19
23.14167	19
23.15000	19
23.15833	19
23.16667	20
23.17500	20
23.18333	20
23.19167	20
23.20000	20
23.20833	20
23.21667	20
23.22500	19
23.23333	19
23.24167	19
23.25000	19
23.25833	19
23.26667	19
23.27500	19
23.28333	19
23.29167	19
23.30000	19
23.30833	19
23.31667	19
23.32500	19
23.33333	19
23.34167	19
23.35000	20
23.35833	20
23.36667	20
23.37500	19
23.38333	19
23.39167	19
23.40000	18
23.40833	18
23.41667	18
23.42500	18
23.43333	18
23.44167	18
23.45000	18
23.45833	18
23.46667	17
23.47500	17
23.48333	17
23.49167	17
23.50000	16
23.50833	16
23.51667	16
23.52500	16
23.53333	15
23.54167	15
23.55000	14
23.55833	15
23.56667	15
23.57500	15
23.58333	14
23.59167	14
23.60000	14
23.60833	14
23.61667	13
23.62500	12
23.63333	12
23.64167	11
23.65000	10
23.65833	9
23.66667	9
23.67500	8
23.68333	7
23.69167	7
23.70000	6
23.70833	5
23.71667	4
23.72500	4
23.73333	3
23.74167	2
23.75000	1
23.75833	0
23.76667	-1
23.77500	-2
23.78333	-3
23.79167	-4
23.80000	-5
23.80833	-6
23.81667	-7
23.82500	-8
23.83333	-9
23.84167	-9
23.85000	-10
23.85833	-11
23.86667	-11
23.87500	-12
23.88333	-13
23.89167	-14
23.90000	-14
23.90833	-15
23.91667	-15
23.92500	-16
23.93333	-16
23.94167	-16
23.95000	-17
23.95833	-17
23.96667	-17
23.97500	-18
23.98333	-18
23.99167	-18
24.00000	-18
24.00833	-18
24.01667	-18
24.02500	-17
24.03333	-17
24.04167	-16
24.05000	-17
24.05833	-17
24.06667	-17
24.07500	-17
24.08333	-16
24.09167	-15
24.10000	-15
24.10833	-15
24.11667	-14
24.12500	-14
24.13333	-13
24.14167	-12
24.15000	-11
24.15833	-10
24.16667	-9
24.17500	-8
24.18333	-7
24.19167	-6
24.20000	-6
24.20833	-5
24.21667	-4
24.22500	-3
24.23333	-2
24.24167	-2
24.25000	-1
24.25833	-1
24.26667	0
24.27500	1
24.28333	2
24.29167	2
24.30000	2
24.30833	3
24.31667	3
24.32500	4
24.33333	4
24.34167	4
24.35000	5
24.35833	5
24.36667	6
24.37500	7
24.38333	7
24.39167	7
24.40000	7
24.40833	7
24.41667	8
24.42500	8
24.43333	9
24.44167	9
24.45000	10
24.45833	10
24.46667	11
24.47500	11
24.48333	11
24.49167	12
24.50000	12
24.50833	12
24.51667	13
24.52500	13
24.53333	14
24.54167	14
24.55000	13
24.55833	13
24.56667	14
24.57500	14
24.58333	14
24.59167	14
24.60000	14
24.60833	14
24.61667	14
24.62500	14
24.63333	14
24.64167	14
24.65000	15
24.65833	15
24.66667	15
24.67500	15
24.68333	15
24.69167	15
24.70000	15
24.70833	15
24.71667	15
24.72500	15
24.73333	15
24.74167	15
24.75000	16
24.75833	16
24.76667	16
24.77500	17
24.78333	17
24.79167	17
24.80000	17
24.80833	17
24.81667	17
24.82500	17
24.83333	17
24.84167	17
24.85000	17
24.85833	17
24.86667	17
24.87500	17
24.88333	17
24.89167	17
24.90000	18
24.90833	18
24.91667	18
24.92500	19
24.93333	19
24.94167	19
24.95000	20
24.95833	21
24.96667	21
24.97500	22
24.98333	22
24.99167	23
25.00000	24
25.00833	24
25.01667	25
25.02500	25
25.03333	26
25.04167	27
25.05000	27
25.05833	28
25.06667	29
25.07500	29
25.08333	30
25.09167	31
25.10000	32
25.10833	33
25.11667	34
25.12500	35
25.13333	36
25.14167	37
25.15000	38
25.15833	40
25.16667	42
25.17500	43
25.18333	45
25.19167	46
25.20000	48
25.20833	50
25.21667	52
25.22500	54
25.23333	56
25.24167	58
25.25000	61
25.25833	64
25.26667	66
25.27500	69
25.28333	73
25.29167	76
25.30000	80
25.30833	84
25.31667	89
25.32500	94
25.33333	100
25.34167	105
25.35000	112
25.35833	119
25.36667	127
25.37500	134
25.38333	143
25.39167	153
25.40000	163
25.40833	174
25.41667	187
25.42500	200
25.43333	215
25.44167	231
25.45000	248
25.45833	267
25.46667	289
25.47500	312
25.48333	337
25.49167	364
25.50000	394
25.50833	427
25.51667	462
25.52500	500
25.53333	543
25.54167	588
25.55000	638
25.55833	693
25.56667	752
25.57500	817
25.58333	888
25.59167	966
25.60000	1050
25.60833	1143
25.61667	1244
25.62500	1354
25.63333	1474
25.64167	1606
25.65000	1749
25.65833	1905
25.66667	2074
25.67500	2258
25.68333	2458
25.69167	2675
25.70000	2910
25.70833	3164
25.71667	3438
25.72500	3734
25.73333	4052
25.74167	4393
25.75000	4759
25.75833	5150
25.76667	5567
25.77500	6012
25.78333	6484
25.79167	6984
25.80000	7513
25.80833	8071
25.81667	8656
25.82500	9270
25.83333	9911
25.84167	10578
25.85000	11271
25.85833	11988
25.86667	12727
25.87500	13487
25.88333	14266
25.89167	15061
25.90000	15869
25.90833	16688
25.91667	17514
25.92500	18345
25.93333	19176
25.94167	20006
25.95000	20830
25.95833	21645
25.96667	22448
25.97500	23234
25.98333	24001
25.99167	24745
26.00000	25462
26.00833	26150
26.01667	26806
26.02500	27426
26.03333	28010
26.04167	28553
26.05000	29054
26.05833	29513
26.06667	29926
26.07500	30292
26.08333	30610
26.09167	30881
26.10000	31103
26.10833	31277
26.11667	31401
26.12500	31478
26.13333	31507
26.14167	31489
26.15000	31425
26.15833	31316
26.16667	31163
26.17500	30968
26.18333	30732
26.19167	30458
26.20000	30147
26.20833	29801
26.21667	29421
26.22500	29011
26.23333	28571
26.24167	28105
26.25000	27613
26.25833	27100
26.26667	26566
26.27500	26014
26.28333	25445
26.29167	24863
26.30000	24268
26.30833	23663
26.31667	23049
26.32500	22430
26.33333	21805
26.34167	21178
26.35000	20549
26.35833	19920
26.36667	19292
26.37500	18668
26.38333	18047
26.39167	17432
26.40000	16824
26.40833	16223
26.41667	15630
26.42500	15047
26.43333	14474
26.44167	13911
26.45000	13361
26.45833	12822
26.46667	12295
26.47500	11781
26.48333	11281
26.49167	10794
26.50000	10322
26.50833	9863
26.51667	9418
26.52500	8987
26.53333	8571
26.54167	8168
26.55000	7780
26.55833	7406
26.56667	7045
26.57500	6698
26.58333	6364
26.59167	6044
26.60000	5737
26.60833	5442
26.61667	5160
26.62500	4890
26.63333	4632
26.64167	4385
26.65000	4150
26.65833	3926
26.66667	3713
26.67500	3510
26.68333	3317
26.69167	3133
26.70000	2959
26.70833	2793
26.71667	2635
26.72500	2486
26.73333	2344
26.74167	2210
26.75000	2083
26.75833	1963
26.76667	1850
26.77500	1744
26.78333	1643
26.79167	1547
26.80000	1457
26.80833	1373
26.81667	1293
26.82500	1218
26.83333	1147
26.84167	1081
26.85000	1018
26.85833	959
26.86667	904
26.87500	852
26.88333	803
26.89167	757
26.90000	713
26.90833	673
26.91667	635
26.92500	600
26.93333	566
26.94167	535
26.95000	506
26.95833	478
26.96667	452
26.97500	428
26.98333	405
26.99167	384
27.00000	365
27.00833	346
27.01667	329
27.02500	313
27.03333	297
27.04167	283
27.05000	269
27.05833	256
27.06667	245
27.07500	233
27.08333	223
27.09167	213
27.10000	204
27.10833	194
27.11667	186
27.12500	178
27.13333	171
27.14167	164
27.15000	158
27.15833	153
27.16667	147
27.17500	142
27.18333	137
27.19167	132
27.20000	127
27.20833	122
27.21667	118
27.22500	114
27.23333	111
27.24167	108
27.25000	104
27.25833	101
27.26667	98
27.27500	95
27.28333	93
27.29167	90
27.30000	88
27.30833	85
27.31667	83
27.32500	81
27.33333	78
27.34167	77
27.35000	75
27.35833	73
27.36667	72
27.37500	70
27.38333	69
27.39167	67
27.40000	65
27.40833	64
27.41667	62
27.42500	61
27.43333	59
27.44167	57
27.45000	56
27.45833	55
27.46667	54
27.47500	53
27.48333	51
27.49167	50
27.50000	49
27.50833	48
27.51667	47
27.52500	46
27.53333	45
27.54167	44
27.55000	43
27.55833	42
27.56667	41
27.57500	40
27.58333	40
27.59167	39
27.60000	38
27.60833	37
27.61667	37
27.62500	37
27.63333	37
27.64167	36
27.65000	36
27.65833	36
27.66667	35
27.67500	35
27.68333	35
27.69167	34
27.70000	34
27.70833	34
27.71667	34
27.72500	34
27.73333	34
27.74167	33
27.75000	33
27.75833	33
27.76667	33
27.77500	33
27.78333	33
27.79167	33
27.80000	32
27.80833	32
27.81667	32
27.82500	32
27.83333	33
27.84167	33
27.85000	33
27.85833	34
27.86667	34
27.87500	35
27.88333	35
27.89167	34
27.90000	35
27.90833	35
27.91667	36
27.92500	36
27.93333	35
27.94167	35
27.95000	36
27.95833	36
27.96667	36
27.97500	36
27.98333	36
27.99167	36
28.00000	37

