R.Time (min)	Intensity
0.00000	2
0.00833	2
0.01667	1
0.02500	0
0.03333	0
0.04167	0
0.05000	-0
0.05833	-1
0.06667	-1
0.07500	-1
0.08333	-1
0.09167	-2
0.10000	-1
0.10833	-1
0.11667	-1
0.12500	-0
0.13333	0
0.14167	1
0.15000	1
0.15833	2
0.16667	2
0.17500	2
0.18333	2
0.19167	2
0.20000	1
0.20833	2
0.21667	2
0.22500	2
0.23333	2
0.24167	2
0.25000	2
0.25833	2
0.26667	1
0.27500	1
0.28333	1
0.29167	1
0.30000	1
0.30833	1
0.31667	1
0.32500	1
0.33333	1
0.34167	0
0.35000	0
0.35833	0
0.36667	-0
0.37500	-1
0.38333	-1
0.39167	-1
0.40000	-2
0.40833	-2
0.41667	-2
0.42500	-2
0.43333	-2
0.44167	-2
0.45000	-2
0.45833	-2
0.46667	-2
0.47500	-2
0.48333	-2
0.49167	-2
0.50000	-1
0.50833	-1
0.51667	-2
0.52500	-2
0.53333	-2
0.54167	-2
0.55000	-3
0.55833	-3
0.56667	-3
0.57500	-3
0.58333	-3
0.59167	-3
0.60000	-2
0.60833	-2
0.61667	-2
0.62500	-2
0.63333	-2
0.64167	-2
0.65000	-2
0.65833	-2
0.66667	-2
0.67500	-2
0.68333	-2
0.69167	-2
0.70000	-2
0.70833	-2
0.71667	-2
0.72500	-2
0.73333	-1
0.74167	-1
0.75000	-1
0.75833	-1
0.76667	-1
0.77500	-0
0.78333	0
0.79167	0
0.80000	0
0.80833	0
0.81667	-0
0.82500	-0
0.83333	0
0.84167	1
0.85000	1
0.85833	1
0.86667	1
0.87500	1
0.88333	1
0.89167	1
0.90000	1
0.90833	2
0.91667	2
0.92500	2
0.93333	2
0.94167	1
0.95000	1
0.95833	0
0.96667	-0
0.97500	-0
0.98333	-0
0.99167	-0
1.00000	-0
1.00833	-0
1.01667	0
1.02500	1
1.03333	1
1.04167	0
1.05000	-0
1.05833	-0
1.06667	-0
1.07500	-0
1.08333	-0
1.09167	-1
1.10000	-1
1.10833	-1
1.11667	-1
1.12500	-1
1.13333	-1
1.14167	-1
1.15000	-1
1.15833	-1
1.16667	-1
1.17500	-2
1.18333	-2
1.19167	-2
1.20000	-3
1.20833	-3
1.21667	-3
1.22500	-3
1.23333	-3
1.24167	-2
1.25000	-2
1.25833	-2
1.26667	-2
1.27500	-3
1.28333	-3
1.29167	-3
1.30000	-2
1.30833	-2
1.31667	-2
1.32500	-2
1.33333	-2
1.34167	-2
1.35000	-2
1.35833	-2
1.36667	-2
1.37500	-2
1.38333	-2
1.39167	-2
1.40000	-2
1.40833	-2
1.41667	-2
1.42500	-2
1.43333	-2
1.44167	-2
1.45000	-2
1.45833	-2
1.46667	-2
1.47500	-2
1.48333	-1
1.49167	-2
1.50000	-1
1.50833	-1
1.51667	-1
1.52500	-1
1.53333	-1
1.54167	-1
1.55000	-1
1.55833	-1
1.56667	-1
1.57500	-1
1.58333	-0
1.59167	-0
1.60000	-0
1.60833	-0
1.61667	0
1.62500	1
1.63333	1
1.64167	1
1.65000	1
1.65833	1
1.66667	0
1.67500	0
1.68333	0
1.69167	0
1.70000	-0
1.70833	-0
1.71667	-0
1.72500	-0
1.73333	0
1.74167	0
1.75000	0
1.75833	1
1.76667	1
1.77500	1
1.78333	2
1.79167	2
1.80000	2
1.80833	1
1.81667	1
1.82500	1
1.83333	1
1.84167	1
1.85000	1
1.85833	0
1.86667	0
1.87500	0
1.88333	0
1.89167	0
1.90000	0
1.90833	0
1.91667	0
1.92500	0
1.93333	0
1.94167	0
1.95000	0
1.95833	-0
1.96667	-0
1.97500	-0
1.98333	-0
1.99167	-0
2.00000	-0
2.00833	0
2.01667	0
2.02500	0
2.03333	-0
2.04167	-1
2.05000	-1
2.05833	-1
2.06667	-1
2.07500	-2
2.08333	-1
2.09167	-1
2.10000	-2
2.10833	-2
2.11667	-2
2.12500	-2
2.13333	-2
2.14167	-3
2.15000	-3
2.15833	-3
2.16667	-3
2.17500	-3
2.18333	-3
2.19167	-4
2.20000	-4
2.20833	-4
2.21667	-4
2.22500	-4
2.23333	-3
2.24167	-3
2.25000	-2
2.25833	-2
2.26667	-2
2.27500	-2
2.28333	-2
2.29167	-2
2.30000	-2
2.30833	-2
2.31667	-2
2.32500	-2
2.33333	-3
2.34167	-3
2.35000	-3
2.35833	-3
2.36667	-3
2.37500	-4
2.38333	-4
2.39167	-4
2.40000	-4
2.40833	-4
2.41667	-4
2.42500	-5
2.43333	-5
2.44167	-5
2.45000	-4
2.45833	-4
2.46667	-4
2.47500	-4
2.48333	-4
2.49167	-4
2.50000	-4
2.50833	-4
2.51667	-4
2.52500	-4
2.53333	-4
2.54167	-4
2.55000	-4
2.55833	-4
2.56667	-4
2.57500	-5
2.58333	-5
2.59167	-5
2.60000	-5
2.60833	-5
2.61667	-5
2.62500	-5
2.63333	-5
2.64167	-5
2.65000	-4
2.65833	-4
2.66667	-4
2.67500	-4
2.68333	-3
2.69167	-3
2.70000	-3
2.70833	-3
2.71667	-2
2.72500	-2
2.73333	-2
2.74167	-2
2.75000	-2
2.75833	-2
2.76667	-2
2.77500	-3
2.78333	-3
2.79167	-3
2.80000	-3
2.80833	-3
2.81667	-3
2.82500	-3
2.83333	-3
2.84167	-3
2.85000	-3
2.85833	-3
2.86667	-3
2.87500	-3
2.88333	-3
2.89167	-4
2.90000	-4
2.90833	-4
2.91667	-4
2.92500	-4
2.93333	-4
2.94167	-4
2.95000	-4
2.95833	-4
2.96667	-4
2.97500	-4
2.98333	-4
2.99167	-4
3.00000	-4
3.00833	-3
3.01667	-3
3.02500	-3
3.03333	-3
3.04167	-3
3.05000	-3
3.05833	-3
3.06667	-3
3.07500	-3
3.08333	-3
3.09167	-3
3.10000	-3
3.10833	-3
3.11667	-3
3.12500	-3
3.13333	-2
3.14167	-2
3.15000	-2
3.15833	-2
3.16667	-2
3.17500	-2
3.18333	-2
3.19167	-2
3.20000	-2
3.20833	-2
3.21667	-1
3.22500	-1
3.23333	-1
3.24167	-2
3.25000	-2
3.25833	-2
3.26667	-2
3.27500	-2
3.28333	-2
3.29167	-1
3.30000	-1
3.30833	-1
3.31667	-1
3.32500	-1
3.33333	-1
3.34167	-1
3.35000	-1
3.35833	-1
3.36667	-0
3.37500	0
3.38333	0
3.39167	1
3.40000	1
3.40833	1
3.41667	1
3.42500	1
3.43333	2
3.44167	2
3.45000	3
3.45833	3
3.46667	3
3.47500	4
3.48333	4
3.49167	4
3.50000	4
3.50833	4
3.51667	4
3.52500	4
3.53333	3
3.54167	3
3.55000	3
3.55833	3
3.56667	3
3.57500	3
3.58333	3
3.59167	3
3.60000	3
3.60833	3
3.61667	3
3.62500	3
3.63333	4
3.64167	4
3.65000	4
3.65833	4
3.66667	4
3.67500	4
3.68333	4
3.69167	4
3.70000	4
3.70833	4
3.71667	4
3.72500	4
3.73333	5
3.74167	5
3.75000	5
3.75833	6
3.76667	6
3.77500	5
3.78333	5
3.79167	5
3.80000	5
3.80833	5
3.81667	4
3.82500	5
3.83333	5
3.84167	6
3.85000	6
3.85833	6
3.86667	6
3.87500	6
3.88333	6
3.89167	6
3.90000	6
3.90833	6
3.91667	6
3.92500	6
3.93333	6
3.94167	6
3.95000	6
3.95833	5
3.96667	5
3.97500	4
3.98333	4
3.99167	4
4.00000	3
4.00833	3
4.01667	4
4.02500	4
4.03333	4
4.04167	4
4.05000	4
4.05833	4
4.06667	4
4.07500	5
4.08333	5
4.09167	5
4.10000	5
4.10833	5
4.11667	5
4.12500	5
4.13333	5
4.14167	6
4.15000	6
4.15833	6
4.16667	6
4.17500	6
4.18333	6
4.19167	6
4.20000	6
4.20833	6
4.21667	6
4.22500	6
4.23333	6
4.24167	6
4.25000	6
4.25833	6
4.26667	6
4.27500	6
4.28333	5
4.29167	5
4.30000	5
4.30833	5
4.31667	5
4.32500	5
4.33333	5
4.34167	5
4.35000	5
4.35833	4
4.36667	4
4.37500	3
4.38333	3
4.39167	2
4.40000	2
4.40833	2
4.41667	3
4.42500	2
4.43333	2
4.44167	2
4.45000	2
4.45833	2
4.46667	2
4.47500	2
4.48333	3
4.49167	3
4.50000	2
4.50833	2
4.51667	1
4.52500	1
4.53333	1
4.54167	1
4.55000	1
4.55833	1
4.56667	1
4.57500	2
4.58333	2
4.59167	2
4.60000	3
4.60833	3
4.61667	3
4.62500	3
4.63333	3
4.64167	2
4.65000	2
4.65833	2
4.66667	2
4.67500	2
4.68333	2
4.69167	2
4.70000	1
4.70833	1
4.71667	1
4.72500	1
4.73333	1
4.74167	1
4.75000	1
4.75833	1
4.76667	1
4.77500	1
4.78333	1
4.79167	1
4.80000	1
4.80833	0
4.81667	-0
4.82500	-0
4.83333	-0
4.84167	-1
4.85000	-1
4.85833	-1
4.86667	-1
4.87500	-0
4.88333	0
4.89167	1
4.90000	1
4.90833	1
4.91667	0
4.92500	0
4.93333	0
4.94167	0
4.95000	-0
4.95833	-0
4.96667	-1
4.97500	-0
4.98333	-0
4.99167	-0
5.00000	-1
5.00833	-1
5.01667	-1
5.02500	-1
5.03333	-1
5.04167	-1
5.05000	-1
5.05833	-0
5.06667	-0
5.07500	-0
5.08333	-1
5.09167	-1
5.10000	-1
5.10833	-1
5.11667	-1
5.12500	-0
5.13333	-0
5.14167	-0
5.15000	0
5.15833	1
5.16667	1
5.17500	1
5.18333	0
5.19167	0
5.20000	0
5.20833	0
5.21667	-0
5.22500	-0
5.23333	-0
5.24167	-1
5.25000	-0
5.25833	-0
5.26667	-0
5.27500	-0
5.28333	-0
5.29167	0
5.30000	0
5.30833	0
5.31667	1
5.32500	1
5.33333	1
5.34167	1
5.35000	1
5.35833	1
5.36667	1
5.37500	1
5.38333	1
5.39167	0
5.40000	0
5.40833	0
5.41667	0
5.42500	0
5.43333	0
5.44167	0
5.45000	0
5.45833	0
5.46667	0
5.47500	0
5.48333	0
5.49167	1
5.50000	1
5.50833	1
5.51667	1
5.52500	1
5.53333	1
5.54167	1
5.55000	1
5.55833	1
5.56667	2
5.57500	2
5.58333	2
5.59167	2
5.60000	1
5.60833	1
5.61667	1
5.62500	1
5.63333	1
5.64167	-0
5.65000	-1
5.65833	-1
5.66667	-2
5.67500	-2
5.68333	-1
5.69167	-1
5.70000	-1
5.70833	-1
5.71667	-1
5.72500	-1
5.73333	-1
5.74167	-1
5.75000	-1
5.75833	-1
5.76667	-0
5.77500	-0
5.78333	-0
5.79167	-0
5.80000	-0
5.80833	0
5.81667	0
5.82500	1
5.83333	1
5.84167	1
5.85000	1
5.85833	1
5.86667	1
5.87500	1
5.88333	1
5.89167	1
5.90000	0
5.90833	0
5.91667	0
5.92500	1
5.93333	0
5.94167	-0
5.95000	-0
5.95833	0
5.96667	0
5.97500	0
5.98333	0
5.99167	0
6.00000	0
6.00833	1
6.01667	1
6.02500	1
6.03333	0
6.04167	0
6.05000	0
6.05833	0
6.06667	1
6.07500	1
6.08333	0
6.09167	0
6.10000	0
6.10833	0
6.11667	0
6.12500	0
6.13333	-0
6.14167	-0
6.15000	-0
6.15833	-0
6.16667	-0
6.17500	-1
6.18333	-1
6.19167	-1
6.20000	-1
6.20833	-1
6.21667	-1
6.22500	-1
6.23333	-1
6.24167	-1
6.25000	-1
6.25833	-1
6.26667	-1
6.27500	-1
6.28333	-1
6.29167	-1
6.30000	-1
6.30833	-1
6.31667	-1
6.32500	-1
6.33333	-2
6.34167	-2
6.35000	-3
6.35833	-3
6.36667	-2
6.37500	-2
6.38333	-2
6.39167	-2
6.40000	-2
6.40833	-3
6.41667	-3
6.42500	-3
6.43333	-3
6.44167	-3
6.45000	-3
6.45833	-2
6.46667	-2
6.47500	-2
6.48333	-2
6.49167	-2
6.50000	-2
6.50833	-2
6.51667	-2
6.52500	-2
6.53333	-2
6.54167	-2
6.55000	-2
6.55833	-2
6.56667	-2
6.57500	-2
6.58333	-2
6.59167	-2
6.60000	-2
6.60833	-2
6.61667	-2
6.62500	-2
6.63333	-1
6.64167	-1
6.65000	-1
6.65833	-2
6.66667	-2
6.67500	-2
6.68333	-3
6.69167	-3
6.70000	-2
6.70833	-2
6.71667	-2
6.72500	-2
6.73333	-2
6.74167	-2
6.75000	-2
6.75833	-2
6.76667	-2
6.77500	-2
6.78333	-2
6.79167	-2
6.80000	-2
6.80833	-2
6.81667	-2
6.82500	-2
6.83333	-2
6.84167	-2
6.85000	-2
6.85833	-2
6.86667	-2
6.87500	-2
6.88333	-2
6.89167	-2
6.90000	-2
6.90833	-2
6.91667	-2
6.92500	-2
6.93333	-2
6.94167	-2
6.95000	-2
6.95833	-2
6.96667	-2
6.97500	-2
6.98333	-2
6.99167	-2
7.00000	-2
7.00833	-1
7.01667	-1
7.02500	-0
7.03333	-0
7.04167	-1
7.05000	-1
7.05833	-1
7.06667	-1
7.07500	-1
7.08333	-1
7.09167	-0
7.10000	-0
7.10833	-0
7.11667	-0
7.12500	-1
7.13333	-1
7.14167	-1
7.15000	-0
7.15833	-0
7.16667	-0
7.17500	-0
7.18333	-1
7.19167	-1
7.20000	-1
7.20833	-1
7.21667	-1
7.22500	-1
7.23333	-1
7.24167	-0
7.25000	-0
7.25833	0
7.26667	0
7.27500	1
7.28333	1
7.29167	1
7.30000	1
7.30833	1
7.31667	1
7.32500	1
7.33333	1
7.34167	2
7.35000	2
7.35833	2
7.36667	2
7.37500	3
7.38333	3
7.39167	4
7.40000	4
7.40833	4
7.41667	4
7.42500	4
7.43333	4
7.44167	5
7.45000	5
7.45833	5
7.46667	6
7.47500	6
7.48333	7
7.49167	7
7.50000	8
7.50833	8
7.51667	8
7.52500	8
7.53333	8
7.54167	8
7.55000	8
7.55833	8
7.56667	8
7.57500	8
7.58333	8
7.59167	7
7.60000	7
7.60833	7
7.61667	7
7.62500	7
7.63333	7
7.64167	7
7.65000	7
7.65833	7
7.66667	7
7.67500	8
7.68333	8
7.69167	8
7.70000	8
7.70833	8
7.71667	8
7.72500	9
7.73333	9
7.74167	9
7.75000	9
7.75833	10
7.76667	10
7.77500	10
7.78333	11
7.79167	11
7.80000	12
7.80833	14
7.81667	17
7.82500	21
7.83333	25
7.84167	31
7.85000	39
7.85833	50
7.86667	61
7.87500	75
7.88333	92
7.89167	110
7.90000	130
7.90833	154
7.91667	179
7.92500	205
7.93333	232
7.94167	260
7.95000	286
7.95833	312
7.96667	334
7.97500	355
7.98333	372
7.99167	386
8.00000	395
8.00833	401
8.01667	403
8.02500	402
8.03333	397
8.04167	388
8.05000	377
8.05833	364
8.06667	349
8.07500	333
8.08333	316
8.09167	299
8.10000	281
8.10833	264
8.11667	247
8.12500	231
8.13333	215
8.14167	200
8.15000	187
8.15833	174
8.16667	163
8.17500	153
8.18333	144
8.19167	135
8.20000	127
8.20833	120
8.21667	113
8.22500	107
8.23333	100
8.24167	94
8.25000	88
8.25833	83
8.26667	77
8.27500	72
8.28333	66
8.29167	61
8.30000	56
8.30833	51
8.31667	46
8.32500	41
8.33333	37
8.34167	33
8.35000	29
8.35833	25
8.36667	21
8.37500	18
8.38333	15
8.39167	13
8.40000	10
8.40833	8
8.41667	7
8.42500	6
8.43333	5
8.44167	4
8.45000	4
8.45833	4
8.46667	3
8.47500	4
8.48333	4
8.49167	4
8.50000	6
8.50833	7
8.51667	9
8.52500	10
8.53333	12
8.54167	13
8.55000	15
8.55833	17
8.56667	19
8.57500	21
8.58333	23
8.59167	24
8.60000	26
8.60833	27
8.61667	28
8.62500	29
8.63333	30
8.64167	31
8.65000	32
8.65833	32
8.66667	32
8.67500	32
8.68333	33
8.69167	33
8.70000	33
8.70833	33
8.71667	32
8.72500	32
8.73333	31
8.74167	30
8.75000	29
8.75833	28
8.76667	27
8.77500	26
8.78333	25
8.79167	24
8.80000	23
8.80833	22
8.81667	21
8.82500	21
8.83333	20
8.84167	19
8.85000	18
8.85833	17
8.86667	16
8.87500	16
8.88333	16
8.89167	15
8.90000	15
8.90833	14
8.91667	14
8.92500	13
8.93333	13
8.94167	13
8.95000	12
8.95833	11
8.96667	11
8.97500	11
8.98333	11
8.99167	11
9.00000	11
9.00833	11
9.01667	11
9.02500	10
9.03333	10
9.04167	10
9.05000	10
9.05833	10
9.06667	10
9.07500	10
9.08333	9
9.09167	9
9.10000	9
9.10833	9
9.11667	9
9.12500	9
9.13333	10
9.14167	10
9.15000	10
9.15833	11
9.16667	11
9.17500	12
9.18333	13
9.19167	14
9.20000	15
9.20833	15
9.21667	17
9.22500	18
9.23333	20
9.24167	21
9.25000	23
9.25833	25
9.26667	27
9.27500	30
9.28333	32
9.29167	35
9.30000	37
9.30833	39
9.31667	42
9.32500	44
9.33333	46
9.34167	48
9.35000	50
9.35833	52
9.36667	54
9.37500	55
9.38333	57
9.39167	58
9.40000	59
9.40833	60
9.41667	61
9.42500	61
9.43333	62
9.44167	62
9.45000	62
9.45833	62
9.46667	62
9.47500	62
9.48333	62
9.49167	62
9.50000	62
9.50833	62
9.51667	62
9.52500	61
9.53333	61
9.54167	60
9.55000	59
9.55833	58
9.56667	57
9.57500	57
9.58333	56
9.59167	55
9.60000	54
9.60833	52
9.61667	51
9.62500	49
9.63333	48
9.64167	46
9.65000	45
9.65833	43
9.66667	41
9.67500	40
9.68333	39
9.69167	38
9.70000	36
9.70833	35
9.71667	33
9.72500	32
9.73333	30
9.74167	29
9.75000	27
9.75833	26
9.76667	26
9.77500	25
9.78333	24
9.79167	23
9.80000	22
9.80833	21
9.81667	21
9.82500	20
9.83333	20
9.84167	19
9.85000	19
9.85833	19
9.86667	19
9.87500	18
9.88333	17
9.89167	17
9.90000	17
9.90833	16
9.91667	16
9.92500	16
9.93333	16
9.94167	16
9.95000	16
9.95833	16
9.96667	15
9.97500	15
9.98333	15
9.99167	15
10.00000	15
10.00833	15
10.01667	15
10.02500	16
10.03333	16
10.04167	17
10.05000	17
10.05833	16
10.06667	16
10.07500	15
10.08333	15
10.09167	15
10.10000	15
10.10833	15
10.11667	15
10.12500	16
10.13333	16
10.14167	16
10.15000	15
10.15833	15
10.16667	15
10.17500	15
10.18333	15
10.19167	15
10.20000	15
10.20833	16
10.21667	16
10.22500	16
10.23333	16
10.24167	16
10.25000	15
10.25833	15
10.26667	14
10.27500	14
10.28333	14
10.29167	14
10.30000	14
10.30833	13
10.31667	13
10.32500	13
10.33333	13
10.34167	14
10.35000	14
10.35833	14
10.36667	14
10.37500	14
10.38333	14
10.39167	14
10.40000	14
10.40833	14
10.41667	14
10.42500	13
10.43333	13
10.44167	13
10.45000	13
10.45833	13
10.46667	13
10.47500	13
10.48333	14
10.49167	14
10.50000	14
10.50833	14
10.51667	14
10.52500	14
10.53333	14
10.54167	14
10.55000	13
10.55833	13
10.56667	13
10.57500	13
10.58333	13
10.59167	13
10.60000	13
10.60833	13
10.61667	13
10.62500	13
10.63333	14
10.64167	14
10.65000	14
10.65833	14
10.66667	14
10.67500	14
10.68333	14
10.69167	14
10.70000	14
10.70833	14
10.71667	14
10.72500	14
10.73333	14
10.74167	13
10.75000	13
10.75833	13
10.76667	13
10.77500	13
10.78333	13
10.79167	13
10.80000	13
10.80833	13
10.81667	13
10.82500	14
10.83333	14
10.84167	15
10.85000	15
10.85833	16
10.86667	17
10.87500	18
10.88333	18
10.89167	19
10.90000	20
10.90833	22
10.91667	24
10.92500	26
10.93333	29
10.94167	31
10.95000	34
10.95833	38
10.96667	42
10.97500	47
10.98333	53
10.99167	60
11.00000	69
11.00833	79
11.01667	91
11.02500	106
11.03333	124
11.04167	145
11.05000	172
11.05833	206
11.06667	246
11.07500	296
11.08333	358
11.09167	434
11.10000	527
11.10833	641
11.11667	780
11.12500	948
11.13333	1149
11.14167	1391
11.15000	1676
11.15833	2012
11.16667	2403
11.17500	2856
11.18333	3375
11.19167	3963
11.20000	4625
11.20833	5361
11.21667	6173
11.22500	7060
11.23333	8018
11.24167	9042
11.25000	10124
11.25833	11256
11.26667	12427
11.27500	13623
11.28333	14830
11.29167	16033
11.30000	17216
11.30833	18363
11.31667	19457
11.32500	20484
11.33333	21428
11.34167	22277
11.35000	23019
11.35833	23644
11.36667	24145
11.37500	24519
11.38333	24762
11.39167	24874
11.40000	24857
11.40833	24715
11.41667	24455
11.42500	24083
11.43333	23609
11.44167	23041
11.45000	22391
11.45833	21670
11.46667	20888
11.47500	20057
11.48333	19187
11.49167	18289
11.50000	17373
11.50833	16447
11.51667	15521
11.52500	14601
11.53333	13696
11.54167	12809
11.55000	11947
11.55833	11113
11.56667	10310
11.57500	9542
11.58333	8811
11.59167	8117
11.60000	7461
11.60833	6845
11.61667	6267
11.62500	5728
11.63333	5227
11.64167	4761
11.65000	4329
11.65833	3931
11.66667	3565
11.67500	3230
11.68333	2923
11.69167	2642
11.70000	2387
11.70833	2154
11.71667	1943
11.72500	1752
11.73333	1580
11.74167	1424
11.75000	1283
11.75833	1157
11.76667	1044
11.77500	942
11.78333	850
11.79167	769
11.80000	695
11.80833	629
11.81667	571
11.82500	519
11.83333	472
11.84167	431
11.85000	394
11.85833	361
11.86667	331
11.87500	305
11.88333	282
11.89167	261
11.90000	242
11.90833	225
11.91667	210
11.92500	197
11.93333	185
11.94167	175
11.95000	166
11.95833	158
11.96667	151
11.97500	144
11.98333	138
11.99167	132
12.00000	128
12.00833	123
12.01667	120
12.02500	117
12.03333	114
12.04167	112
12.05000	110
12.05833	108
12.06667	106
12.07500	105
12.08333	104
12.09167	104
12.10000	103
12.10833	103
12.11667	103
12.12500	103
12.13333	104
12.14167	105
12.15000	106
12.15833	107
12.16667	108
12.17500	109
12.18333	109
12.19167	109
12.20000	110
12.20833	110
12.21667	110
12.22500	110
12.23333	110
12.24167	110
12.25000	109
12.25833	108
12.26667	106
12.27500	105
12.28333	103
12.29167	101
12.30000	100
12.30833	98
12.31667	95
12.32500	92
12.33333	89
12.34167	87
12.35000	84
12.35833	81
12.36667	78
12.37500	75
12.38333	72
12.39167	70
12.40000	67
12.40833	64
12.41667	62
12.42500	59
12.43333	57
12.44167	55
12.45000	52
12.45833	50
12.46667	48
12.47500	47
12.48333	45
12.49167	44
12.50000	43
12.50833	41
12.51667	40
12.52500	39
12.53333	37
12.54167	36
12.55000	36
12.55833	35
12.56667	34
12.57500	34
12.58333	33
12.59167	32
12.60000	32
12.60833	31
12.61667	30
12.62500	30
12.63333	29
12.64167	29
12.65000	28
12.65833	28
12.66667	27
12.67500	27
12.68333	27
12.69167	27
12.70000	27
12.70833	27
12.71667	27
12.72500	27
12.73333	27
12.74167	27
12.75000	27
12.75833	26
12.76667	26
12.77500	26
12.78333	26
12.79167	26
12.80000	26
12.80833	26
12.81667	26
12.82500	26
12.83333	26
12.84167	25
12.85000	25
12.85833	25
12.86667	25
12.87500	25
12.88333	25
12.89167	25
12.90000	25
12.90833	25
12.91667	25
12.92500	24
12.93333	24
12.94167	23
12.95000	22
12.95833	21
12.96667	20
12.97500	20
12.98333	20
12.99167	19
13.00000	19
13.00833	18
13.01667	18
13.02500	18
13.03333	18
13.04167	18
13.05000	18
13.05833	18
13.06667	18
13.07500	18
13.08333	17
13.09167	17
13.10000	17
13.10833	17
13.11667	17
13.12500	17
13.13333	17
13.14167	17
13.15000	17
13.15833	17
13.16667	17
13.17500	17
13.18333	17
13.19167	18
13.20000	18
13.20833	18
13.21667	18
13.22500	18
13.23333	18
13.24167	18
13.25000	17
13.25833	17
13.26667	17
13.27500	17
13.28333	17
13.29167	18
13.30000	18
13.30833	18
13.31667	18
13.32500	17
13.33333	17
13.34167	17
13.35000	17
13.35833	17
13.36667	17
13.37500	17
13.38333	17
13.39167	18
13.40000	18
13.40833	18
13.41667	18
13.42500	18
13.43333	18
13.44167	17
13.45000	17
13.45833	17
13.46667	17
13.47500	17
13.48333	17
13.49167	17
13.50000	17
13.50833	17
13.51667	17
13.52500	17
13.53333	18
13.54167	17
13.55000	17
13.55833	17
13.56667	17
13.57500	17
13.58333	17
13.59167	17
13.60000	17
13.60833	17
13.61667	17
13.62500	17
13.63333	17
13.64167	17
13.65000	18
13.65833	18
13.66667	19
13.67500	19
13.68333	19
13.69167	19
13.70000	19
13.70833	20
13.71667	20
13.72500	20
13.73333	20
13.74167	21
13.75000	21
13.75833	21
13.76667	21
13.77500	21
13.78333	21
13.79167	20
13.80000	20
13.80833	20
13.81667	19
13.82500	19
13.83333	19
13.84167	19
13.85000	19
13.85833	20
13.86667	20
13.87500	21
13.88333	21
13.89167	21
13.90000	21
13.90833	21
13.91667	21
13.92500	21
13.93333	21
13.94167	21
13.95000	22
13.95833	22
13.96667	22
13.97500	22
13.98333	22
13.99167	22
14.00000	22
14.00833	22
14.01667	23
14.02500	23
14.03333	24
14.04167	24
14.05000	24
14.05833	24
14.06667	24
14.07500	24
14.08333	24
14.09167	24
14.10000	24
14.10833	24
14.11667	24
14.12500	24
14.13333	25
14.14167	25
14.15000	26
14.15833	27
14.16667	27
14.17500	28
14.18333	29
14.19167	30
14.20000	31
14.20833	32
14.21667	33
14.22500	33
14.23333	34
14.24167	35
14.25000	36
14.25833	37
14.26667	37
14.27500	39
14.28333	39
14.29167	40
14.30000	42
14.30833	43
14.31667	45
14.32500	46
14.33333	47
14.34167	48
14.35000	49
14.35833	51
14.36667	52
14.37500	52
14.38333	53
14.39167	54
14.40000	56
14.40833	57
14.41667	59
14.42500	60
14.43333	61
14.44167	62
14.45000	63
14.45833	64
14.46667	66
14.47500	67
14.48333	68
14.49167	69
14.50000	70
14.50833	71
14.51667	72
14.52500	74
14.53333	75
14.54167	76
14.55000	78
14.55833	80
14.56667	81
14.57500	83
14.58333	85
14.59167	87
14.60000	89
14.60833	91
14.61667	93
14.62500	95
14.63333	98
14.64167	101
14.65000	103
14.65833	105
14.66667	108
14.67500	111
14.68333	115
14.69167	117
14.70000	120
14.70833	123
14.71667	127
14.72500	130
14.73333	134
14.74167	138
14.75000	143
14.75833	147
14.76667	152
14.77500	156
14.78333	160
14.79167	165
14.80000	169
14.80833	174
14.81667	179
14.82500	184
14.83333	189
14.84167	194
14.85000	199
14.85833	204
14.86667	209
14.87500	214
14.88333	219
14.89167	225
14.90000	231
14.90833	236
14.91667	242
14.92500	248
14.93333	254
14.94167	259
14.95000	265
14.95833	271
14.96667	276
14.97500	282
14.98333	287
14.99167	293
15.00000	300
15.00833	306
15.01667	312
15.02500	319
15.03333	326
15.04167	333
15.05000	340
15.05833	347
15.06667	354
15.07500	361
15.08333	368
15.09167	376
15.10000	384
15.10833	392
15.11667	401
15.12500	410
15.13333	420
15.14167	430
15.15000	441
15.15833	453
15.16667	467
15.17500	482
15.18333	499
15.19167	518
15.20000	539
15.20833	564
15.21667	591
15.22500	623
15.23333	660
15.24167	702
15.25000	750
15.25833	805
15.26667	870
15.27500	943
15.28333	1028
15.29167	1124
15.30000	1234
15.30833	1358
15.31667	1499
15.32500	1658
15.33333	1836
15.34167	2034
15.35000	2253
15.35833	2494
15.36667	2758
15.37500	3044
15.38333	3354
15.39167	3686
15.40000	4039
15.40833	4413
15.41667	4806
15.42500	5216
15.43333	5639
15.44167	6074
15.45000	6517
15.45833	6965
15.46667	7413
15.47500	7857
15.48333	8293
15.49167	8718
15.50000	9126
15.50833	9514
15.51667	9876
15.52500	10211
15.53333	10514
15.54167	10782
15.55000	11013
15.55833	11205
15.56667	11357
15.57500	11467
15.58333	11536
15.59167	11563
15.60000	11550
15.60833	11496
15.61667	11404
15.62500	11274
15.63333	11111
15.64167	10916
15.65000	10691
15.65833	10440
15.66667	10165
15.67500	9870
15.68333	9557
15.69167	9229
15.70000	8889
15.70833	8541
15.71667	8187
15.72500	7829
15.73333	7470
15.74167	7111
15.75000	6756
15.75833	6405
15.76667	6060
15.77500	5723
15.78333	5394
15.79167	5075
15.80000	4768
15.80833	4471
15.81667	4187
15.82500	3914
15.83333	3654
15.84167	3407
15.85000	3172
15.85833	2950
15.86667	2740
15.87500	2542
15.88333	2355
15.89167	2181
15.90000	2017
15.90833	1864
15.91667	1722
15.92500	1589
15.93333	1466
15.94167	1352
15.95000	1246
15.95833	1149
15.96667	1059
15.97500	975
15.98333	899
15.99167	828
16.00000	763
16.00833	703
16.01667	648
16.02500	597
16.03333	551
16.04167	509
16.05000	470
16.05833	434
16.06667	401
16.07500	372
16.08333	345
16.09167	320
16.10000	298
16.10833	277
16.11667	258
16.12500	242
16.13333	226
16.14167	212
16.15000	199
16.15833	187
16.16667	176
16.17500	166
16.18333	157
16.19167	148
16.20000	141
16.20833	134
16.21667	127
16.22500	121
16.23333	116
16.24167	111
16.25000	106
16.25833	102
16.26667	98
16.27500	94
16.28333	91
16.29167	87
16.30000	84
16.30833	81
16.31667	78
16.32500	75
16.33333	73
16.34167	71
16.35000	69
16.35833	67
16.36667	65
16.37500	64
16.38333	63
16.39167	62
16.40000	61
16.40833	60
16.41667	59
16.42500	57
16.43333	56
16.44167	55
16.45000	54
16.45833	52
16.46667	51
16.47500	50
16.48333	49
16.49167	48
16.50000	48
16.50833	47
16.51667	46
16.52500	45
16.53333	45
16.54167	45
16.55000	44
16.55833	44
16.56667	43
16.57500	43
16.58333	42
16.59167	42
16.60000	41
16.60833	40
16.61667	39
16.62500	39
16.63333	38
16.64167	38
16.65000	38
16.65833	38
16.66667	37
16.67500	37
16.68333	37
16.69167	36
16.70000	35
16.70833	35
16.71667	35
16.72500	35
16.73333	36
16.74167	35
16.75000	35
16.75833	34
16.76667	34
16.77500	33
16.78333	33
16.79167	32
16.80000	32
16.80833	32
16.81667	31
16.82500	31
16.83333	30
16.84167	30
16.85000	30
16.85833	31
16.86667	31
16.87500	31
16.88333	31
16.89167	30
16.90000	30
16.90833	30
16.91667	29
16.92500	29
16.93333	29
16.94167	29
16.95000	29
16.95833	28
16.96667	28
16.97500	27
16.98333	27
16.99167	27
17.00000	27
17.00833	26
17.01667	26
17.02500	26
17.03333	26
17.04167	26
17.05000	26
17.05833	26
17.06667	26
17.07500	26
17.08333	26
17.09167	26
17.10000	26
17.10833	26
17.11667	26
17.12500	26
17.13333	26
17.14167	26
17.15000	26
17.15833	26
17.16667	26
17.17500	26
17.18333	26
17.19167	25
17.20000	25
17.20833	25
17.21667	25
17.22500	25
17.23333	25
17.24167	25
17.25000	25
17.25833	26
17.26667	26
17.27500	27
17.28333	28
17.29167	28
17.30000	28
17.30833	28
17.31667	28
17.32500	28
17.33333	27
17.34167	27
17.35000	26
17.35833	25
17.36667	25
17.37500	25
17.38333	25
17.39167	25
17.40000	25
17.40833	24
17.41667	24
17.42500	24
17.43333	24
17.44167	24
17.45000	23
17.45833	23
17.46667	23
17.47500	23
17.48333	23
17.49167	23
17.50000	23
17.50833	23
17.51667	23
17.52500	23
17.53333	23
17.54167	23
17.55000	24
17.55833	24
17.56667	24
17.57500	25
17.58333	25
17.59167	26
17.60000	26
17.60833	26
17.61667	27
17.62500	27
17.63333	28
17.64167	29
17.65000	30
17.65833	31
17.66667	32
17.67500	33
17.68333	35
17.69167	36
17.70000	39
17.70833	41
17.71667	44
17.72500	47
17.73333	51
17.74167	54
17.75000	58
17.75833	63
17.76667	67
17.77500	73
17.78333	80
17.79167	87
17.80000	96
17.80833	105
17.81667	116
17.82500	129
17.83333	143
17.84167	159
17.85000	177
17.85833	198
17.86667	221
17.87500	248
17.88333	278
17.89167	312
17.90000	351
17.90833	395
17.91667	444
17.92500	499
17.93333	560
17.94167	628
17.95000	703
17.95833	786
17.96667	877
17.97500	977
17.98333	1086
17.99167	1203
18.00000	1330
18.00833	1465
18.01667	1610
18.02500	1764
18.03333	1926
18.04167	2096
18.05000	2274
18.05833	2459
18.06667	2650
18.07500	2846
18.08333	3045
18.09167	3247
18.10000	3450
18.10833	3652
18.11667	3852
18.12500	4048
18.13333	4239
18.14167	4424
18.15000	4600
18.15833	4767
18.16667	4923
18.17500	5067
18.18333	5198
18.19167	5314
18.20000	5416
18.20833	5501
18.21667	5570
18.22500	5622
18.23333	5658
18.24167	5676
18.25000	5678
18.25833	5663
18.26667	5632
18.27500	5585
18.28333	5524
18.29167	5449
18.30000	5361
18.30833	5261
18.31667	5150
18.32500	5028
18.33333	4899
18.34167	4762
18.35000	4618
18.35833	4469
18.36667	4316
18.37500	4159
18.38333	3999
18.39167	3838
18.40000	3677
18.40833	3516
18.41667	3355
18.42500	3197
18.43333	3040
18.44167	2887
18.45000	2737
18.45833	2591
18.46667	2449
18.47500	2311
18.48333	2178
18.49167	2050
18.50000	1927
18.50833	1809
18.51667	1696
18.52500	1588
18.53333	1485
18.54167	1388
18.55000	1296
18.55833	1209
18.56667	1126
18.57500	1048
18.58333	974
18.59167	905
18.60000	841
18.60833	780
18.61667	724
18.62500	671
18.63333	621
18.64167	576
18.65000	533
18.65833	494
18.66667	457
18.67500	423
18.68333	391
18.69167	362
18.70000	335
18.70833	311
18.71667	288
18.72500	267
18.73333	248
18.74167	230
18.75000	212
18.75833	197
18.76667	182
18.77500	169
18.78333	157
18.79167	146
18.80000	136
18.80833	128
18.81667	120
18.82500	113
18.83333	106
18.84167	100
18.85000	94
18.85833	89
18.86667	85
18.87500	80
18.88333	76
18.89167	73
18.90000	69
18.90833	66
18.91667	64
18.92500	61
18.93333	59
18.94167	57
18.95000	55
18.95833	53
18.96667	51
18.97500	49
18.98333	47
18.99167	45
19.00000	43
19.00833	42
19.01667	40
19.02500	39
19.03333	39
19.04167	38
19.05000	37
19.05833	36
19.06667	35
19.07500	34
19.08333	34
19.09167	33
19.10000	33
19.10833	33
19.11667	32
19.12500	32
19.13333	32
19.14167	31
19.15000	30
19.15833	30
19.16667	29
19.17500	29
19.18333	28
19.19167	28
19.20000	28
19.20833	28
19.21667	27
19.22500	27
19.23333	26
19.24167	26
19.25000	26
19.25833	25
19.26667	25
19.27500	24
19.28333	24
19.29167	23
19.30000	23
19.30833	22
19.31667	22
19.32500	22
19.33333	21
19.34167	21
19.35000	20
19.35833	20
19.36667	20
19.37500	20
19.38333	20
19.39167	20
19.40000	20
19.40833	21
19.41667	20
19.42500	20
19.43333	19
19.44167	19
19.45000	19
19.45833	18
19.46667	18
19.47500	18
19.48333	18
19.49167	17
19.50000	17
19.50833	17
19.51667	17
19.52500	17
19.53333	17
19.54167	17
19.55000	17
19.55833	17
19.56667	17
19.57500	17
19.58333	17
19.59167	17
19.60000	16
19.60833	16
19.61667	16
19.62500	16
19.63333	16
19.64167	16
19.65000	16
19.65833	16
19.66667	16
19.67500	16
19.68333	16
19.69167	16
19.70000	16
19.70833	15
19.71667	15
19.72500	14
19.73333	14
19.74167	15
19.75000	15
19.75833	15
19.76667	15
19.77500	15
19.78333	15
19.79167	15
19.80000	15
19.80833	14
19.81667	14
19.82500	15
19.83333	15
19.84167	15
19.85000	15
19.85833	15
19.86667	14
19.87500	14
19.88333	14
19.89167	14
19.90000	14
19.90833	14
19.91667	14
19.92500	14
19.93333	14
19.94167	14
19.95000	15
19.95833	15
19.96667	16
19.97500	16
19.98333	16
19.99167	16
20.00000	16
20.00833	15
20.01667	16
20.02500	16
20.03333	15
20.04167	15
20.05000	16
20.05833	16
20.06667	16
20.07500	17
20.08333	17
20.09167	17
20.10000	17
20.10833	17
20.11667	17
20.12500	17
20.13333	17
20.14167	17
20.15000	17
20.15833	17
20.16667	18
20.17500	18
20.18333	18
20.19167	18
20.20000	19
20.20833	19
20.21667	20
20.22500	20
20.23333	21
20.24167	21
20.25000	21
20.25833	21
20.26667	21
20.27500	21
20.28333	21
20.29167	21
20.30000	22
20.30833	22
20.31667	23
20.32500	24
20.33333	24
20.34167	24
20.35000	24
20.35833	25
20.36667	25
20.37500	25
20.38333	25
20.39167	25
20.40000	26
20.40833	26
20.41667	26
20.42500	26
20.43333	25
20.44167	25
20.45000	25
20.45833	25
20.46667	25
20.47500	25
20.48333	26
20.49167	26
20.50000	27
20.50833	27
20.51667	27
20.52500	27
20.53333	28
20.54167	28
20.55000	28
20.55833	29
20.56667	29
20.57500	29
20.58333	30
20.59167	30
20.60000	30
20.60833	30
20.61667	30
20.62500	29
20.63333	29
20.64167	29
20.65000	28
20.65833	28
20.66667	28
20.67500	28
20.68333	29
20.69167	28
20.70000	28
20.70833	28
20.71667	28
20.72500	28
20.73333	28
20.74167	28
20.75000	28
20.75833	28
20.76667	28
20.77500	28
20.78333	29
20.79167	29
20.80000	29
20.80833	29
20.81667	29
20.82500	29
20.83333	29
20.84167	29
20.85000	30
20.85833	30
20.86667	30
20.87500	30
20.88333	30
20.89167	30
20.90000	30
20.90833	30
20.91667	30
20.92500	30
20.93333	29
20.94167	29
20.95000	29
20.95833	29
20.96667	30
20.97500	30
20.98333	29
20.99167	29
21.00000	29
21.00833	29
21.01667	29
21.02500	28
21.03333	29
21.04167	29
21.05000	29
21.05833	29
21.06667	30
21.07500	30
21.08333	31
21.09167	31
21.10000	31
21.10833	31
21.11667	32
21.12500	32
21.13333	32
21.14167	32
21.15000	32
21.15833	32
21.16667	32
21.17500	32
21.18333	32
21.19167	32
21.20000	32
21.20833	32
21.21667	32
21.22500	32
21.23333	33
21.24167	33
21.25000	33
21.25833	33
21.26667	33
21.27500	33
21.28333	33
21.29167	33
21.30000	33
21.30833	33
21.31667	33
21.32500	33
21.33333	32
21.34167	32
21.35000	31
21.35833	30
21.36667	30
21.37500	30
21.38333	29
21.39167	29
21.40000	30
21.40833	29
21.41667	29
21.42500	29
21.43333	29
21.44167	28
21.45000	27
21.45833	27
21.46667	27
21.47500	27
21.48333	27
21.49167	27
21.50000	27
21.50833	27
21.51667	27
21.52500	26
21.53333	25
21.54167	25
21.55000	25
21.55833	24
21.56667	24
21.57500	24
21.58333	23
21.59167	23
21.60000	23
21.60833	23
21.61667	23
21.62500	23
21.63333	23
21.64167	23
21.65000	23
21.65833	23
21.66667	22
21.67500	23
21.68333	22
21.69167	22
21.70000	22
21.70833	22
21.71667	21
21.72500	21
21.73333	21
21.74167	21
21.75000	21
21.75833	21
21.76667	21
21.77500	21
21.78333	21
21.79167	20
21.80000	20
21.80833	20
21.81667	19
21.82500	19
21.83333	19
21.84167	18
21.85000	17
21.85833	17
21.86667	16
21.87500	15
21.88333	15
21.89167	14
21.90000	13
21.90833	12
21.91667	11
21.92500	10
21.93333	9
21.94167	8
21.95000	7
21.95833	6
21.96667	4
21.97500	3
21.98333	1
21.99167	-1
22.00000	-3
22.00833	-5
22.01667	-7
22.02500	-8
22.03333	-10
22.04167	-12
22.05000	-15
22.05833	-18
22.06667	-21
22.07500	-23
22.08333	-26
22.09167	-29
22.10000	-32
22.10833	-35
22.11667	-38
22.12500	-41
22.13333	-44
22.14167	-47
22.15000	-50
22.15833	-53
22.16667	-56
22.17500	-60
22.18333	-63
22.19167	-66
22.20000	-69
22.20833	-72
22.21667	-75
22.22500	-77
22.23333	-79
22.24167	-81
22.25000	-83
22.25833	-85
22.26667	-86
22.27500	-88
22.28333	-89
22.29167	-90
22.30000	-91
22.30833	-91
22.31667	-92
22.32500	-93
22.33333	-93
22.34167	-93
22.35000	-93
22.35833	-93
22.36667	-92
22.37500	-91
22.38333	-90
22.39167	-89
22.40000	-87
22.40833	-85
22.41667	-83
22.42500	-81
22.43333	-80
22.44167	-78
22.45000	-76
22.45833	-74
22.46667	-72
22.47500	-69
22.48333	-67
22.49167	-64
22.50000	-61
22.50833	-59
22.51667	-57
22.52500	-54
22.53333	-52
22.54167	-50
22.55000	-47
22.55833	-45
22.56667	-42
22.57500	-39
22.58333	-37
22.59167	-34
22.60000	-32
22.60833	-29
22.61667	-26
22.62500	-23
22.63333	-20
22.64167	-18
22.65000	-17
22.65833	-15
22.66667	-13
22.67500	-12
22.68333	-10
22.69167	-8
22.70000	-6
22.70833	-5
22.71667	-4
22.72500	-2
22.73333	-1
22.74167	-0
22.75000	1
22.75833	2
22.76667	3
22.77500	4
22.78333	5
22.79167	6
22.80000	7
22.80833	8
22.81667	9
22.82500	10
22.83333	11
22.84167	11
22.85000	12
22.85833	12
22.86667	13
22.87500	13
22.88333	14
22.89167	14
22.90000	15
22.90833	15
22.91667	15
22.92500	15
22.93333	15
22.94167	15
22.95000	15
22.95833	16
22.96667	16
22.97500	15
22.98333	15
22.99167	16
23.00000	16
23.00833	16
23.01667	17
23.02500	17
23.03333	17
23.04167	17
23.05000	17
23.05833	17
23.06667	17
23.07500	17
23.08333	17
23.09167	18
23.10000	17
23.10833	17
23.11667	17
23.12500	17
23.13333	16
23.14167	16
23.15000	16
23.15833	16
23.16667	16
23.17500	16
23.18333	16
23.19167	16
23.20000	16
23.20833	17
23.21667	17
23.22500	18
23.23333	18
23.24167	18
23.25000	18
23.25833	18
23.26667	18
23.27500	18
23.28333	17
23.29167	17
23.30000	16
23.30833	16
23.31667	16
23.32500	16
23.33333	16
23.34167	15
23.35000	15
23.35833	15
23.36667	15
23.37500	15
23.38333	15
23.39167	15
23.40000	15
23.40833	14
23.41667	14
23.42500	13
23.43333	13
23.44167	13
23.45000	13
23.45833	13
23.46667	12
23.47500	13
23.48333	13
23.49167	12
23.50000	12
23.50833	12
23.51667	12
23.52500	11
23.53333	11
23.54167	11
23.55000	11
23.55833	11
23.56667	10
23.57500	10
23.58333	9
23.59167	9
23.60000	9
23.60833	8
23.61667	8
23.62500	8
23.63333	7
23.64167	7
23.65000	6
23.65833	6
23.66667	5
23.67500	5
23.68333	4
23.69167	3
23.70000	2
23.70833	2
23.71667	1
23.72500	1
23.73333	-0
23.74167	-2
23.75000	-3
23.75833	-4
23.76667	-5
23.77500	-6
23.78333	-6
23.79167	-7
23.80000	-8
23.80833	-8
23.81667	-9
23.82500	-10
23.83333	-11
23.84167	-12
23.85000	-12
23.85833	-13
23.86667	-13
23.87500	-14
23.88333	-15
23.89167	-15
23.90000	-16
23.90833	-16
23.91667	-17
23.92500	-17
23.93333	-17
23.94167	-18
23.95000	-19
23.95833	-19
23.96667	-19
23.97500	-18
23.98333	-18
23.99167	-18
24.00000	-18
24.00833	-18
24.01667	-18
24.02500	-18
24.03333	-18
24.04167	-18
24.05000	-18
24.05833	-18
24.06667	-18
24.07500	-17
24.08333	-17
24.09167	-17
24.10000	-16
24.10833	-16
24.11667	-15
24.12500	-14
24.13333	-13
24.14167	-12
24.15000	-12
24.15833	-11
24.16667	-11
24.17500	-10
24.18333	-10
24.19167	-8
24.20000	-7
24.20833	-5
24.21667	-4
24.22500	-3
24.23333	-2
24.24167	-2
24.25000	-1
24.25833	0
24.26667	2
24.27500	3
24.28333	4
24.29167	5
24.30000	6
24.30833	7
24.31667	7
24.32500	8
24.33333	8
24.34167	9
24.35000	9
24.35833	10
24.36667	10
24.37500	11
24.38333	11
24.39167	11
24.40000	11
24.40833	12
24.41667	12
24.42500	12
24.43333	12
24.44167	12
24.45000	13
24.45833	14
24.46667	14
24.47500	14
24.48333	14
24.49167	15
24.50000	15
24.50833	16
24.51667	16
24.52500	16
24.53333	16
24.54167	17
24.55000	17
24.55833	17
24.56667	17
24.57500	17
24.58333	18
24.59167	18
24.60000	19
24.60833	19
24.61667	19
24.62500	19
24.63333	19
24.64167	19
24.65000	19
24.65833	18
24.66667	18
24.67500	17
24.68333	17
24.69167	17
24.70000	17
24.70833	17
24.71667	17
24.72500	17
24.73333	17
24.74167	18
24.75000	18
24.75833	18
24.76667	18
24.77500	18
24.78333	18
24.79167	18
24.80000	18
24.80833	18
24.81667	18
24.82500	18
24.83333	18
24.84167	17
24.85000	18
24.85833	18
24.86667	18
24.87500	18
24.88333	18
24.89167	18
24.90000	18
24.90833	19
24.91667	19
24.92500	19
24.93333	19
24.94167	18
24.95000	18
24.95833	18
24.96667	18
24.97500	18
24.98333	18
24.99167	18
25.00000	18
25.00833	19
25.01667	19
25.02500	19
25.03333	19
25.04167	19
25.05000	19
25.05833	19
25.06667	19
25.07500	19
25.08333	20
25.09167	20
25.10000	20
25.10833	20
25.11667	21
25.12500	21
25.13333	21
25.14167	22
25.15000	23
25.15833	23
25.16667	24
25.17500	25
25.18333	26
25.19167	27
25.20000	28
25.20833	29
25.21667	29
25.22500	29
25.23333	29
25.24167	30
25.25000	31
25.25833	31
25.26667	32
25.27500	33
25.28333	34
25.29167	35
25.30000	36
25.30833	38
25.31667	40
25.32500	42
25.33333	44
25.34167	46
25.35000	48
25.35833	51
25.36667	54
25.37500	57
25.38333	61
25.39167	65
25.40000	69
25.40833	74
25.41667	78
25.42500	84
25.43333	90
25.44167	97
25.45000	104
25.45833	111
25.46667	120
25.47500	129
25.48333	139
25.49167	150
25.50000	162
25.50833	175
25.51667	189
25.52500	205
25.53333	222
25.54167	240
25.55000	261
25.55833	283
25.56667	307
25.57500	333
25.58333	362
25.59167	393
25.60000	428
25.60833	465
25.61667	506
25.62500	550
25.63333	599
25.64167	652
25.65000	709
25.65833	771
25.66667	838
25.67500	911
25.68333	991
25.69167	1077
25.70000	1170
25.70833	1271
25.71667	1380
25.72500	1496
25.73333	1622
25.74167	1757
25.75000	1902
25.75833	2057
25.76667	2223
25.77500	2400
25.78333	2587
25.79167	2786
25.80000	2997
25.80833	3220
25.81667	3455
25.82500	3701
25.83333	3958
25.84167	4228
25.85000	4509
25.85833	4801
25.86667	5104
25.87500	5418
25.88333	5740
25.89167	6071
25.90000	6410
25.90833	6756
25.91667	7108
25.92500	7464
25.93333	7825
25.94167	8189
25.95000	8553
25.95833	8917
25.96667	9280
25.97500	9639
25.98333	9994
25.99167	10342
26.00000	10683
26.00833	11015
26.01667	11337
26.02500	11648
26.03333	11945
26.04167	12228
26.05000	12495
26.05833	12747
26.06667	12980
26.07500	13194
26.08333	13389
26.09167	13564
26.10000	13718
26.10833	13852
26.11667	13963
26.12500	14053
26.13333	14121
26.14167	14166
26.15000	14191
26.15833	14193
26.16667	14175
26.17500	14135
26.18333	14075
26.19167	13995
26.20000	13896
26.20833	13778
26.21667	13642
26.22500	13490
26.23333	13321
26.24167	13138
26.25000	12940
26.25833	12729
26.26667	12507
26.27500	12273
26.28333	12029
26.29167	11775
26.30000	11514
26.30833	11245
26.31667	10971
26.32500	10691
26.33333	10408
26.34167	10121
26.35000	9831
26.35833	9540
26.36667	9248
26.37500	8955
26.38333	8664
26.39167	8374
26.40000	8087
26.40833	7802
26.41667	7520
26.42500	7242
26.43333	6968
26.44167	6698
26.45000	6434
26.45833	6175
26.46667	5922
26.47500	5675
26.48333	5434
26.49167	5199
26.50000	4970
26.50833	4748
26.51667	4533
26.52500	4325
26.53333	4123
26.54167	3929
26.55000	3741
26.55833	3559
26.56667	3384
26.57500	3216
26.58333	3055
26.59167	2901
26.60000	2752
26.60833	2610
26.61667	2474
26.62500	2344
26.63333	2220
26.64167	2101
26.65000	1989
26.65833	1882
26.66667	1779
26.67500	1682
26.68333	1589
26.69167	1501
26.70000	1418
26.70833	1339
26.71667	1264
26.72500	1193
26.73333	1126
26.74167	1063
26.75000	1003
26.75833	946
26.76667	893
26.77500	842
26.78333	795
26.79167	750
26.80000	708
26.80833	669
26.81667	631
26.82500	595
26.83333	562
26.84167	531
26.85000	501
26.85833	473
26.86667	447
26.87500	423
26.88333	400
26.89167	378
26.90000	358
26.90833	339
26.91667	322
26.92500	305
26.93333	290
26.94167	276
26.95000	263
26.95833	250
26.96667	239
26.97500	228
26.98333	218
26.99167	208
27.00000	199
27.00833	190
27.01667	182
27.02500	174
27.03333	167
27.04167	160
27.05000	154
27.05833	149
27.06667	144
27.07500	138
27.08333	133
27.09167	129
27.10000	124
27.10833	120
27.11667	116
27.12500	112
27.13333	109
27.14167	106
27.15000	103
27.15833	101
27.16667	98
27.17500	95
27.18333	92
27.19167	90
27.20000	88
27.20833	85
27.21667	83
27.22500	81
27.23333	79
27.24167	78
27.25000	76
27.25833	75
27.26667	73
27.27500	72
27.28333	71
27.29167	70
27.30000	69
27.30833	67
27.31667	66
27.32500	65
27.33333	64
27.34167	64
27.35000	63
27.35833	62
27.36667	61
27.37500	60
27.38333	59
27.39167	58
27.40000	56
27.40833	55
27.41667	54
27.42500	54
27.43333	53
27.44167	52
27.45000	52
27.45833	51
27.46667	51
27.47500	51
27.48333	51
27.49167	50
27.50000	49
27.50833	49
27.51667	48
27.52500	47
27.53333	47
27.54167	46
27.55000	46
27.55833	46
27.56667	45
27.57500	44
27.58333	44
27.59167	44
27.60000	43
27.60833	42
27.61667	43
27.62500	43
27.63333	43
27.64167	43
27.65000	43
27.65833	43
27.66667	43
27.67500	43
27.68333	43
27.69167	43
27.70000	43
27.70833	42
27.71667	42
27.72500	42
27.73333	41
27.74167	41
27.75000	40
27.75833	40
27.76667	39
27.77500	39
27.78333	39
27.79167	39
27.80000	39
27.80833	39
27.81667	40
27.82500	40
27.83333	40
27.84167	40
27.85000	40
27.85833	39
27.86667	39
27.87500	38
27.88333	38
27.89167	38
27.90000	38
27.90833	38
27.91667	38
27.92500	38
27.93333	38
27.94167	38
27.95000	37
27.95833	37
27.96667	37
27.97500	37
27.98333	37
27.99167	36
28.00000	36

