R.Time (min)	Intensity
0.00000	-3
0.00833	-3
0.01667	-1
0.02500	0
0.03333	0
0.04167	1
0.05000	1
0.05833	1
0.06667	1
0.07500	1
0.08333	1
0.09167	1
0.10000	1
0.10833	1
0.11667	2
0.12500	2
0.13333	2
0.14167	2
0.15000	2
0.15833	2
0.16667	2
0.17500	2
0.18333	2
0.19167	2
0.20000	2
0.20833	2
0.21667	2
0.22500	2
0.23333	2
0.24167	3
0.25000	3
0.25833	3
0.26667	2
0.27500	2
0.28333	2
0.29167	2
0.30000	2
0.30833	2
0.31667	2
0.32500	2
0.33333	2
0.34167	2
0.35000	2
0.35833	1
0.36667	1
0.37500	2
0.38333	1
0.39167	1
0.40000	1
0.40833	1
0.41667	1
0.42500	0
0.43333	0
0.44167	0
0.45000	0
0.45833	-0
0.46667	-0
0.47500	-1
0.48333	-1
0.49167	-1
0.50000	-1
0.50833	-2
0.51667	-2
0.52500	-1
0.53333	-1
0.54167	-1
0.55000	-0
0.55833	-0
0.56667	0
0.57500	0
0.58333	0
0.59167	1
0.60000	1
0.60833	1
0.61667	1
0.62500	1
0.63333	1
0.64167	1
0.65000	1
0.65833	1
0.66667	1
0.67500	1
0.68333	1
0.69167	2
0.70000	2
0.70833	2
0.71667	2
0.72500	2
0.73333	3
0.74167	3
0.75000	3
0.75833	3
0.76667	4
0.77500	5
0.78333	5
0.79167	5
0.80000	5
0.80833	4
0.81667	4
0.82500	4
0.83333	4
0.84167	4
0.85000	4
0.85833	5
0.86667	5
0.87500	5
0.88333	6
0.89167	6
0.90000	6
0.90833	6
0.91667	6
0.92500	6
0.93333	5
0.94167	6
0.95000	6
0.95833	5
0.96667	5
0.97500	5
0.98333	5
0.99167	6
1.00000	5
1.00833	5
1.01667	5
1.02500	5
1.03333	5
1.04167	5
1.05000	5
1.05833	5
1.06667	5
1.07500	4
1.08333	4
1.09167	4
1.10000	4
1.10833	4
1.11667	5
1.12500	5
1.13333	5
1.14167	5
1.15000	5
1.15833	5
1.16667	5
1.17500	4
1.18333	4
1.19167	4
1.20000	3
1.20833	3
1.21667	3
1.22500	3
1.23333	3
1.24167	3
1.25000	3
1.25833	2
1.26667	2
1.27500	2
1.28333	2
1.29167	2
1.30000	2
1.30833	2
1.31667	3
1.32500	3
1.33333	3
1.34167	3
1.35000	3
1.35833	3
1.36667	4
1.37500	4
1.38333	4
1.39167	5
1.40000	5
1.40833	5
1.41667	5
1.42500	5
1.43333	5
1.44167	6
1.45000	6
1.45833	6
1.46667	5
1.47500	5
1.48333	6
1.49167	6
1.50000	6
1.50833	6
1.51667	6
1.52500	6
1.53333	6
1.54167	5
1.55000	5
1.55833	5
1.56667	5
1.57500	6
1.58333	6
1.59167	7
1.60000	7
1.60833	7
1.61667	7
1.62500	6
1.63333	6
1.64167	6
1.65000	6
1.65833	7
1.66667	7
1.67500	7
1.68333	7
1.69167	7
1.70000	7
1.70833	7
1.71667	7
1.72500	7
1.73333	7
1.74167	7
1.75000	7
1.75833	8
1.76667	8
1.77500	8
1.78333	8
1.79167	8
1.80000	8
1.80833	8
1.81667	8
1.82500	8
1.83333	8
1.84167	8
1.85000	8
1.85833	8
1.86667	8
1.87500	8
1.88333	8
1.89167	8
1.90000	8
1.90833	8
1.91667	9
1.92500	9
1.93333	9
1.94167	9
1.95000	9
1.95833	9
1.96667	10
1.97500	10
1.98333	10
1.99167	10
2.00000	10
2.00833	10
2.01667	10
2.02500	10
2.03333	10
2.04167	10
2.05000	10
2.05833	10
2.06667	10
2.07500	10
2.08333	11
2.09167	11
2.10000	12
2.10833	12
2.11667	12
2.12500	12
2.13333	12
2.14167	12
2.15000	12
2.15833	12
2.16667	12
2.17500	12
2.18333	12
2.19167	12
2.20000	12
2.20833	12
2.21667	13
2.22500	13
2.23333	13
2.24167	13
2.25000	13
2.25833	13
2.26667	13
2.27500	13
2.28333	13
2.29167	13
2.30000	13
2.30833	14
2.31667	13
2.32500	13
2.33333	13
2.34167	13
2.35000	13
2.35833	13
2.36667	13
2.37500	13
2.38333	13
2.39167	13
2.40000	13
2.40833	13
2.41667	13
2.42500	13
2.43333	13
2.44167	12
2.45000	12
2.45833	12
2.46667	12
2.47500	12
2.48333	12
2.49167	12
2.50000	12
2.50833	11
2.51667	11
2.52500	11
2.53333	11
2.54167	11
2.55000	11
2.55833	11
2.56667	10
2.57500	10
2.58333	11
2.59167	11
2.60000	11
2.60833	12
2.61667	12
2.62500	12
2.63333	12
2.64167	12
2.65000	12
2.65833	12
2.66667	12
2.67500	12
2.68333	13
2.69167	13
2.70000	13
2.70833	13
2.71667	13
2.72500	13
2.73333	13
2.74167	13
2.75000	13
2.75833	13
2.76667	14
2.77500	14
2.78333	15
2.79167	15
2.80000	15
2.80833	16
2.81667	16
2.82500	16
2.83333	17
2.84167	17
2.85000	17
2.85833	18
2.86667	18
2.87500	18
2.88333	18
2.89167	18
2.90000	19
2.90833	20
2.91667	20
2.92500	20
2.93333	21
2.94167	21
2.95000	21
2.95833	21
2.96667	22
2.97500	22
2.98333	22
2.99167	22
3.00000	22
3.00833	22
3.01667	22
3.02500	22
3.03333	22
3.04167	22
3.05000	22
3.05833	22
3.06667	21
3.07500	21
3.08333	22
3.09167	22
3.10000	22
3.10833	22
3.11667	22
3.12500	22
3.13333	22
3.14167	22
3.15000	22
3.15833	22
3.16667	22
3.17500	22
3.18333	22
3.19167	22
3.20000	22
3.20833	22
3.21667	22
3.22500	22
3.23333	23
3.24167	23
3.25000	23
3.25833	23
3.26667	23
3.27500	23
3.28333	22
3.29167	23
3.30000	23
3.30833	23
3.31667	23
3.32500	23
3.33333	23
3.34167	23
3.35000	23
3.35833	23
3.36667	23
3.37500	24
3.38333	24
3.39167	24
3.40000	24
3.40833	25
3.41667	25
3.42500	26
3.43333	26
3.44167	26
3.45000	26
3.45833	27
3.46667	27
3.47500	27
3.48333	28
3.49167	28
3.50000	29
3.50833	29
3.51667	29
3.52500	29
3.53333	30
3.54167	30
3.55000	30
3.55833	30
3.56667	30
3.57500	30
3.58333	31
3.59167	31
3.60000	31
3.60833	31
3.61667	31
3.62500	30
3.63333	30
3.64167	30
3.65000	30
3.65833	30
3.66667	30
3.67500	31
3.68333	31
3.69167	31
3.70000	31
3.70833	31
3.71667	31
3.72500	32
3.73333	32
3.74167	32
3.75000	32
3.75833	33
3.76667	33
3.77500	33
3.78333	34
3.79167	34
3.80000	34
3.80833	34
3.81667	34
3.82500	34
3.83333	34
3.84167	34
3.85000	34
3.85833	35
3.86667	35
3.87500	35
3.88333	35
3.89167	35
3.90000	35
3.90833	35
3.91667	36
3.92500	36
3.93333	36
3.94167	36
3.95000	36
3.95833	37
3.96667	37
3.97500	38
3.98333	38
3.99167	39
4.00000	39
4.00833	39
4.01667	39
4.02500	40
4.03333	40
4.04167	40
4.05000	40
4.05833	40
4.06667	40
4.07500	41
4.08333	41
4.09167	41
4.10000	41
4.10833	41
4.11667	41
4.12500	42
4.13333	42
4.14167	42
4.15000	42
4.15833	43
4.16667	43
4.17500	44
4.18333	44
4.19167	44
4.20000	45
4.20833	45
4.21667	46
4.22500	46
4.23333	46
4.24167	46
4.25000	47
4.25833	47
4.26667	47
4.27500	47
4.28333	47
4.29167	47
4.30000	48
4.30833	48
4.31667	48
4.32500	49
4.33333	50
4.34167	50
4.35000	50
4.35833	51
4.36667	51
4.37500	51
4.38333	51
4.39167	51
4.40000	51
4.40833	51
4.41667	51
4.42500	52
4.43333	52
4.44167	52
4.45000	52
4.45833	52
4.46667	53
4.47500	53
4.48333	53
4.49167	53
4.50000	53
4.50833	53
4.51667	53
4.52500	54
4.53333	54
4.54167	54
4.55000	54
4.55833	54
4.56667	54
4.57500	54
4.58333	54
4.59167	54
4.60000	55
4.60833	55
4.61667	55
4.62500	55
4.63333	56
4.64167	56
4.65000	56
4.65833	56
4.66667	57
4.67500	57
4.68333	58
4.69167	59
4.70000	59
4.70833	59
4.71667	59
4.72500	59
4.73333	59
4.74167	60
4.75000	60
4.75833	61
4.76667	61
4.77500	62
4.78333	62
4.79167	62
4.80000	63
4.80833	63
4.81667	63
4.82500	63
4.83333	63
4.84167	63
4.85000	63
4.85833	63
4.86667	63
4.87500	63
4.88333	64
4.89167	64
4.90000	64
4.90833	65
4.91667	65
4.92500	65
4.93333	66
4.94167	66
4.95000	66
4.95833	66
4.96667	66
4.97500	67
4.98333	67
4.99167	68
5.00000	68
5.00833	69
5.01667	69
5.02500	69
5.03333	70
5.04167	70
5.05000	70
5.05833	70
5.06667	71
5.07500	71
5.08333	71
5.09167	72
5.10000	72
5.10833	72
5.11667	73
5.12500	73
5.13333	74
5.14167	74
5.15000	75
5.15833	75
5.16667	76
5.17500	76
5.18333	76
5.19167	76
5.20000	76
5.20833	76
5.21667	76
5.22500	76
5.23333	77
5.24167	77
5.25000	77
5.25833	78
5.26667	78
5.27500	79
5.28333	79
5.29167	79
5.30000	80
5.30833	80
5.31667	81
5.32500	81
5.33333	81
5.34167	82
5.35000	82
5.35833	82
5.36667	82
5.37500	83
5.38333	83
5.39167	83
5.40000	84
5.40833	84
5.41667	84
5.42500	85
5.43333	85
5.44167	86
5.45000	86
5.45833	86
5.46667	87
5.47500	87
5.48333	87
5.49167	87
5.50000	87
5.50833	88
5.51667	88
5.52500	89
5.53333	89
5.54167	90
5.55000	91
5.55833	91
5.56667	91
5.57500	91
5.58333	92
5.59167	92
5.60000	92
5.60833	92
5.61667	92
5.62500	92
5.63333	93
5.64167	93
5.65000	93
5.65833	94
5.66667	94
5.67500	94
5.68333	94
5.69167	95
5.70000	95
5.70833	95
5.71667	95
5.72500	95
5.73333	96
5.74167	96
5.75000	96
5.75833	97
5.76667	97
5.77500	98
5.78333	98
5.79167	98
5.80000	98
5.80833	99
5.81667	99
5.82500	99
5.83333	99
5.84167	99
5.85000	100
5.85833	100
5.86667	100
5.87500	100
5.88333	101
5.89167	101
5.90000	102
5.90833	103
5.91667	103
5.92500	103
5.93333	103
5.94167	104
5.95000	104
5.95833	104
5.96667	105
5.97500	105
5.98333	106
5.99167	106
6.00000	107
6.00833	107
6.01667	108
6.02500	108
6.03333	109
6.04167	109
6.05000	110
6.05833	111
6.06667	112
6.07500	112
6.08333	112
6.09167	113
6.10000	113
6.10833	113
6.11667	114
6.12500	115
6.13333	115
6.14167	116
6.15000	116
6.15833	117
6.16667	117
6.17500	118
6.18333	119
6.19167	119
6.20000	119
6.20833	120
6.21667	121
6.22500	121
6.23333	121
6.24167	122
6.25000	122
6.25833	122
6.26667	122
6.27500	122
6.28333	123
6.29167	123
6.30000	123
6.30833	123
6.31667	123
6.32500	124
6.33333	124
6.34167	125
6.35000	125
6.35833	125
6.36667	126
6.37500	127
6.38333	128
6.39167	128
6.40000	129
6.40833	129
6.41667	130
6.42500	130
6.43333	131
6.44167	132
6.45000	132
6.45833	132
6.46667	132
6.47500	132
6.48333	132
6.49167	132
6.50000	132
6.50833	133
6.51667	134
6.52500	134
6.53333	135
6.54167	135
6.55000	135
6.55833	135
6.56667	136
6.57500	136
6.58333	136
6.59167	136
6.60000	137
6.60833	137
6.61667	138
6.62500	139
6.63333	139
6.64167	140
6.65000	140
6.65833	141
6.66667	141
6.67500	141
6.68333	142
6.69167	142
6.70000	143
6.70833	143
6.71667	143
6.72500	144
6.73333	145
6.74167	145
6.75000	146
6.75833	147
6.76667	148
6.77500	149
6.78333	150
6.79167	150
6.80000	150
6.80833	150
6.81667	151
6.82500	151
6.83333	151
6.84167	151
6.85000	151
6.85833	152
6.86667	152
6.87500	154
6.88333	155
6.89167	155
6.90000	156
6.90833	156
6.91667	157
6.92500	158
6.93333	158
6.94167	159
6.95000	160
6.95833	160
6.96667	161
6.97500	162
6.98333	162
6.99167	163
7.00000	164
7.00833	164
7.01667	165
7.02500	165
7.03333	166
7.04167	166
7.05000	167
7.05833	167
7.06667	168
7.07500	169
7.08333	169
7.09167	169
7.10000	170
7.10833	170
7.11667	170
7.12500	171
7.13333	171
7.14167	171
7.15000	171
7.15833	171
7.16667	171
7.17500	171
7.18333	172
7.19167	172
7.20000	172
7.20833	173
7.21667	173
7.22500	174
7.23333	175
7.24167	175
7.25000	176
7.25833	176
7.26667	177
7.27500	178
7.28333	179
7.29167	179
7.30000	180
7.30833	181
7.31667	183
7.32500	185
7.33333	189
7.34167	193
7.35000	199
7.35833	207
7.36667	218
7.37500	232
7.38333	252
7.39167	278
7.40000	312
7.40833	356
7.41667	411
7.42500	480
7.43333	563
7.44167	659
7.45000	768
7.45833	886
7.46667	1009
7.47500	1129
7.48333	1237
7.49167	1325
7.50000	1381
7.50833	1397
7.51667	1363
7.52500	1276
7.53333	1132
7.54167	933
7.55000	686
7.55833	402
7.56667	92
7.57500	-228
7.58333	-544
7.59167	-840
7.60000	-1106
7.60833	-1330
7.61667	-1508
7.62500	-1634
7.63333	-1710
7.64167	-1739
7.65000	-1723
7.65833	-1671
7.66667	-1589
7.67500	-1484
7.68333	-1364
7.69167	-1233
7.70000	-1099
7.70833	-966
7.71667	-836
7.72500	-713
7.73333	-598
7.74167	-492
7.75000	-395
7.75833	-307
7.76667	-229
7.77500	-159
7.78333	-97
7.79167	-43
7.80000	5
7.80833	47
7.81667	84
7.82500	116
7.83333	144
7.84167	169
7.85000	190
7.85833	208
7.86667	223
7.87500	236
7.88333	246
7.89167	255
7.90000	262
7.90833	267
7.91667	271
7.92500	274
7.93333	276
7.94167	277
7.95000	277
7.95833	276
7.96667	276
7.97500	275
7.98333	274
7.99167	274
8.00000	274
8.00833	275
8.01667	277
8.02500	280
8.03333	285
8.04167	291
8.05000	299
8.05833	308
8.06667	319
8.07500	332
8.08333	347
8.09167	364
8.10000	382
8.10833	401
8.11667	421
8.12500	442
8.13333	464
8.14167	485
8.15000	506
8.15833	527
8.16667	546
8.17500	563
8.18333	578
8.19167	591
8.20000	601
8.20833	609
8.21667	614
8.22500	617
8.23333	617
8.24167	614
8.25000	609
8.25833	602
8.26667	593
8.27500	582
8.28333	570
8.29167	557
8.30000	543
8.30833	530
8.31667	516
8.32500	502
8.33333	488
8.34167	474
8.35000	461
8.35833	448
8.36667	436
8.37500	425
8.38333	415
8.39167	405
8.40000	396
8.40833	388
8.41667	380
8.42500	372
8.43333	365
8.44167	359
8.45000	353
8.45833	347
8.46667	342
8.47500	336
8.48333	330
8.49167	325
8.50000	320
8.50833	315
8.51667	310
8.52500	306
8.53333	302
8.54167	299
8.55000	296
8.55833	293
8.56667	292
8.57500	290
8.58333	290
8.59167	290
8.60000	290
8.60833	292
8.61667	295
8.62500	300
8.63333	307
8.64167	316
8.65000	328
8.65833	342
8.66667	360
8.67500	382
8.68333	409
8.69167	441
8.70000	481
8.70833	529
8.71667	588
8.72500	659
8.73333	746
8.74167	853
8.75000	984
8.75833	1144
8.76667	1341
8.77500	1583
8.78333	1881
8.79167	2245
8.80000	2692
8.80833	3235
8.81667	3893
8.82500	4684
8.83333	5627
8.84167	6741
8.85000	8042
8.85833	9546
8.86667	11264
8.87500	13202
8.88333	15358
8.89167	17726
8.90000	20289
8.90833	23022
8.91667	25891
8.92500	28854
8.93333	31862
8.94167	34859
8.95000	37787
8.95833	40585
8.96667	43192
8.97500	45551
8.98333	47610
8.99167	49324
9.00000	50659
9.00833	51591
9.01667	52107
9.02500	52205
9.03333	51894
9.04167	51194
9.05000	50134
9.05833	48750
9.06667	47083
9.07500	45179
9.08333	43084
9.09167	40847
9.10000	38513
9.10833	36125
9.11667	33723
9.12500	31342
9.13333	29013
9.14167	26759
9.15000	24602
9.15833	22556
9.16667	20632
9.17500	18838
9.18333	17174
9.19167	15643
9.20000	14241
9.20833	12963
9.21667	11803
9.22500	10755
9.23333	9811
9.24167	8962
9.25000	8200
9.25833	7517
9.26667	6904
9.27500	6355
9.28333	5862
9.29167	5419
9.30000	5020
9.30833	4658
9.31667	4330
9.32500	4031
9.33333	3757
9.34167	3507
9.35000	3276
9.35833	3062
9.36667	2864
9.37500	2680
9.38333	2508
9.39167	2348
9.40000	2199
9.40833	2059
9.41667	1927
9.42500	1804
9.43333	1690
9.44167	1583
9.45000	1483
9.45833	1390
9.46667	1303
9.47500	1222
9.48333	1147
9.49167	1078
9.50000	1014
9.50833	955
9.51667	901
9.52500	851
9.53333	805
9.54167	763
9.55000	724
9.55833	689
9.56667	657
9.57500	627
9.58333	600
9.59167	575
9.60000	553
9.60833	532
9.61667	514
9.62500	496
9.63333	481
9.64167	466
9.65000	453
9.65833	441
9.66667	430
9.67500	420
9.68333	411
9.69167	403
9.70000	395
9.70833	388
9.71667	381
9.72500	375
9.73333	369
9.74167	364
9.75000	359
9.75833	354
9.76667	350
9.77500	346
9.78333	342
9.79167	338
9.80000	335
9.80833	332
9.81667	330
9.82500	327
9.83333	325
9.84167	322
9.85000	320
9.85833	318
9.86667	315
9.87500	313
9.88333	311
9.89167	309
9.90000	308
9.90833	306
9.91667	305
9.92500	303
9.93333	302
9.94167	301
9.95000	300
9.95833	299
9.96667	298
9.97500	297
9.98333	296
9.99167	295
10.00000	295
10.00833	293
10.01667	292
10.02500	291
10.03333	291
10.04167	290
10.05000	289
10.05833	288
10.06667	288
10.07500	287
10.08333	286
10.09167	286
10.10000	285
10.10833	285
10.11667	284
10.12500	284
10.13333	283
10.14167	283
10.15000	283
10.15833	282
10.16667	282
10.17500	281
10.18333	281
10.19167	280
10.20000	280
10.20833	280
10.21667	279
10.22500	279
10.23333	278
10.24167	277
10.25000	277
10.25833	276
10.26667	276
10.27500	275
10.28333	275
10.29167	275
10.30000	275
10.30833	275
10.31667	274
10.32500	274
10.33333	274
10.34167	273
10.35000	273
10.35833	273
10.36667	273
10.37500	272
10.38333	272
10.39167	271
10.40000	270
10.40833	269
10.41667	269
10.42500	269
10.43333	269
10.44167	269
10.45000	269
10.45833	269
10.46667	269
10.47500	268
10.48333	268
10.49167	268
10.50000	268
10.50833	269
10.51667	269
10.52500	269
10.53333	270
10.54167	272
10.55000	273
10.55833	276
10.56667	278
10.57500	282
10.58333	286
10.59167	290
10.60000	296
10.60833	302
10.61667	310
10.62500	320
10.63333	331
10.64167	345
10.65000	362
10.65833	381
10.66667	404
10.67500	430
10.68333	462
10.69167	498
10.70000	541
10.70833	590
10.71667	647
10.72500	713
10.73333	790
10.74167	879
10.75000	981
10.75833	1100
10.76667	1238
10.77500	1398
10.78333	1585
10.79167	1803
10.80000	2058
10.80833	2358
10.81667	2710
10.82500	3124
10.83333	3612
10.84167	4184
10.85000	4856
10.85833	5640
10.86667	6553
10.87500	7610
10.88333	8824
10.89167	10211
10.90000	11781
10.90833	13542
10.91667	15499
10.92500	17650
10.93333	19989
10.94167	22504
10.95000	25174
10.95833	27972
10.96667	30865
10.97500	33811
10.98333	36765
10.99167	39677
11.00000	42494
11.00833	45162
11.01667	47629
11.02500	49843
11.03333	51761
11.04167	53343
11.05000	54558
11.05833	55385
11.06667	55810
11.07500	55833
11.08333	55461
11.09167	54712
11.10000	53611
11.10833	52189
11.11667	50485
11.12500	48541
11.13333	46401
11.14167	44108
11.15000	41709
11.15833	39244
11.16667	36753
11.17500	34271
11.18333	31829
11.19167	29454
11.20000	27166
11.20833	24985
11.21667	22920
11.22500	20982
11.23333	19174
11.24167	17499
11.25000	15955
11.25833	14539
11.26667	13246
11.27500	12071
11.28333	11005
11.29167	10040
11.30000	9170
11.30833	8385
11.31667	7678
11.32500	7041
11.33333	6467
11.34167	5949
11.35000	5482
11.35833	5059
11.36667	4675
11.37500	4325
11.38333	4007
11.39167	3716
11.40000	3449
11.40833	3203
11.41667	2977
11.42500	2768
11.43333	2575
11.44167	2397
11.45000	2231
11.45833	2078
11.46667	1935
11.47500	1803
11.48333	1680
11.49167	1566
11.50000	1461
11.50833	1363
11.51667	1273
11.52500	1190
11.53333	1114
11.54167	1043
11.55000	978
11.55833	918
11.56667	864
11.57500	814
11.58333	769
11.59167	728
11.60000	690
11.60833	656
11.61667	624
11.62500	596
11.63333	571
11.64167	548
11.65000	527
11.65833	508
11.66667	491
11.67500	475
11.68333	461
11.69167	448
11.70000	437
11.70833	426
11.71667	417
11.72500	408
11.73333	400
11.74167	393
11.75000	386
11.75833	380
11.76667	375
11.77500	371
11.78333	367
11.79167	364
11.80000	362
11.80833	361
11.81667	361
11.82500	362
11.83333	362
11.84167	364
11.85000	366
11.85833	368
11.86667	370
11.87500	372
11.88333	375
11.89167	377
11.90000	379
11.90833	382
11.91667	383
11.92500	385
11.93333	385
11.94167	385
11.95000	384
11.95833	383
11.96667	381
11.97500	377
11.98333	374
11.99167	369
12.00000	364
12.00833	359
12.01667	353
12.02500	346
12.03333	339
12.04167	332
12.05000	324
12.05833	317
12.06667	310
12.07500	303
12.08333	296
12.09167	289
12.10000	283
12.10833	277
12.11667	271
12.12500	266
12.13333	261
12.14167	256
12.15000	251
12.15833	247
12.16667	243
12.17500	239
12.18333	235
12.19167	232
12.20000	229
12.20833	227
12.21667	225
12.22500	223
12.23333	220
12.24167	218
12.25000	217
12.25833	215
12.26667	213
12.27500	212
12.28333	210
12.29167	208
12.30000	207
12.30833	205
12.31667	204
12.32500	203
12.33333	201
12.34167	200
12.35000	199
12.35833	198
12.36667	198
12.37500	197
12.38333	196
12.39167	195
12.40000	194
12.40833	193
12.41667	192
12.42500	191
12.43333	190
12.44167	189
12.45000	188
12.45833	188
12.46667	187
12.47500	187
12.48333	186
12.49167	185
12.50000	184
12.50833	183
12.51667	182
12.52500	181
12.53333	180
12.54167	179
12.55000	178
12.55833	177
12.56667	177
12.57500	176
12.58333	175
12.59167	175
12.60000	174
12.60833	174
12.61667	173
12.62500	172
12.63333	172
12.64167	172
12.65000	172
12.65833	171
12.66667	171
12.67500	170
12.68333	170
12.69167	169
12.70000	168
12.70833	168
12.71667	168
12.72500	167
12.73333	167
12.74167	166
12.75000	165
12.75833	165
12.76667	164
12.77500	164
12.78333	163
12.79167	163
12.80000	163
12.80833	162
12.81667	162
12.82500	161
12.83333	161
12.84167	161
12.85000	161
12.85833	160
12.86667	160
12.87500	160
12.88333	159
12.89167	159
12.90000	158
12.90833	158
12.91667	157
12.92500	157
12.93333	156
12.94167	156
12.95000	155
12.95833	154
12.96667	154
12.97500	154
12.98333	154
12.99167	153
13.00000	152
13.00833	152
13.01667	151
13.02500	150
13.03333	149
13.04167	149
13.05000	149
13.05833	148
13.06667	147
13.07500	146
13.08333	146
13.09167	145
13.10000	145
13.10833	145
13.11667	144
13.12500	144
13.13333	143
13.14167	143
13.15000	143
13.15833	142
13.16667	141
13.17500	140
13.18333	140
13.19167	139
13.20000	138
13.20833	138
13.21667	137
13.22500	137
13.23333	137
13.24167	137
13.25000	137
13.25833	136
13.26667	136
13.27500	135
13.28333	134
13.29167	134
13.30000	134
13.30833	133
13.31667	132
13.32500	132
13.33333	131
13.34167	131
13.35000	131
13.35833	130
13.36667	130
13.37500	130
13.38333	129
13.39167	129
13.40000	129
13.40833	128
13.41667	128
13.42500	128
13.43333	127
13.44167	127
13.45000	127
13.45833	127
13.46667	127
13.47500	127
13.48333	127
13.49167	127
13.50000	127
13.50833	127
13.51667	126
13.52500	126
13.53333	126
13.54167	127
13.55000	127
13.55833	128
13.56667	129
13.57500	130
13.58333	131
13.59167	132
13.60000	133
13.60833	134
13.61667	136
13.62500	137
13.63333	138
13.64167	140
13.65000	141
13.65833	143
13.66667	144
13.67500	146
13.68333	147
13.69167	148
13.70000	148
13.70833	148
13.71667	149
13.72500	149
13.73333	149
13.74167	149
13.75000	149
13.75833	148
13.76667	148
13.77500	147
13.78333	146
13.79167	145
13.80000	144
13.80833	143
13.81667	142
13.82500	140
13.83333	139
13.84167	137
13.85000	136
13.85833	135
13.86667	133
13.87500	132
13.88333	130
13.89167	129
13.90000	129
13.90833	128
13.91667	127
13.92500	126
13.93333	125
13.94167	125
13.95000	125
13.95833	124
13.96667	124
13.97500	124
13.98333	124
13.99167	125
14.00000	125
14.00833	125
14.01667	126
14.02500	126
14.03333	126
14.04167	126
14.05000	127
14.05833	127
14.06667	128
14.07500	129
14.08333	129
14.09167	130
14.10000	131
14.10833	132
14.11667	133
14.12500	135
14.13333	136
14.14167	138
14.15000	140
14.15833	142
14.16667	144
14.17500	146
14.18333	147
14.19167	149
14.20000	151
14.20833	154
14.21667	156
14.22500	158
14.23333	160
14.24167	163
14.25000	166
14.25833	169
14.26667	172
14.27500	175
14.28333	178
14.29167	182
14.30000	185
14.30833	188
14.31667	192
14.32500	195
14.33333	199
14.34167	204
14.35000	208
14.35833	212
14.36667	217
14.37500	221
14.38333	226
14.39167	231
14.40000	236
14.40833	242
14.41667	248
14.42500	254
14.43333	260
14.44167	266
14.45000	273
14.45833	280
14.46667	288
14.47500	295
14.48333	303
14.49167	311
14.50000	319
14.50833	328
14.51667	337
14.52500	346
14.53333	355
14.54167	364
14.55000	374
14.55833	384
14.56667	394
14.57500	405
14.58333	417
14.59167	428
14.60000	440
14.60833	453
14.61667	466
14.62500	479
14.63333	493
14.64167	507
14.65000	522
14.65833	536
14.66667	552
14.67500	568
14.68333	584
14.69167	601
14.70000	619
14.70833	637
14.71667	656
14.72500	675
14.73333	695
14.74167	716
14.75000	738
14.75833	760
14.76667	783
14.77500	807
14.78333	832
14.79167	858
14.80000	885
14.80833	912
14.81667	940
14.82500	970
14.83333	1001
14.84167	1032
14.85000	1065
14.85833	1100
14.86667	1136
14.87500	1173
14.88333	1212
14.89167	1253
14.90000	1296
14.90833	1340
14.91667	1387
14.92500	1436
14.93333	1487
14.94167	1541
14.95000	1597
14.95833	1656
14.96667	1718
14.97500	1783
14.98333	1852
14.99167	1924
15.00000	2001
15.00833	2082
15.01667	2167
15.02500	2256
15.03333	2351
15.04167	2451
15.05000	2557
15.05833	2669
15.06667	2788
15.07500	2913
15.08333	3047
15.09167	3188
15.10000	3338
15.10833	3498
15.11667	3667
15.12500	3848
15.13333	4041
15.14167	4247
15.15000	4468
15.15833	4705
15.16667	4959
15.17500	5233
15.18333	5529
15.19167	5847
15.20000	6192
15.20833	6565
15.21667	6970
15.22500	7408
15.23333	7882
15.24167	8396
15.25000	8951
15.25833	9549
15.26667	10193
15.27500	10883
15.28333	11620
15.29167	12403
15.30000	13231
15.30833	14103
15.31667	15015
15.32500	15962
15.33333	16938
15.34167	17937
15.35000	18951
15.35833	19971
15.36667	20985
15.37500	21985
15.38333	22958
15.39167	23894
15.40000	24780
15.40833	25606
15.41667	26361
15.42500	27035
15.43333	27620
15.44167	28107
15.45000	28492
15.45833	28771
15.46667	28942
15.47500	29003
15.48333	28956
15.49167	28805
15.50000	28554
15.50833	28209
15.51667	27778
15.52500	27269
15.53333	26691
15.54167	26054
15.55000	25368
15.55833	24642
15.56667	23888
15.57500	23113
15.58333	22327
15.59167	21538
15.60000	20753
15.60833	19978
15.61667	19219
15.62500	18481
15.63333	17767
15.64167	17079
15.65000	16421
15.65833	15793
15.66667	15195
15.67500	14628
15.68333	14092
15.69167	13585
15.70000	13107
15.70833	12655
15.71667	12230
15.72500	11828
15.73333	11449
15.74167	11090
15.75000	10750
15.75833	10428
15.76667	10121
15.77500	9829
15.78333	9549
15.79167	9281
15.80000	9024
15.80833	8776
15.81667	8537
15.82500	8306
15.83333	8082
15.84167	7864
15.85000	7652
15.85833	7447
15.86667	7247
15.87500	7051
15.88333	6860
15.89167	6673
15.90000	6490
15.90833	6311
15.91667	6136
15.92500	5964
15.93333	5796
15.94167	5631
15.95000	5470
15.95833	5312
15.96667	5157
15.97500	5005
15.98333	4857
15.99167	4711
16.00000	4568
16.00833	4428
16.01667	4291
16.02500	4158
16.03333	4027
16.04167	3899
16.05000	3773
16.05833	3651
16.06667	3531
16.07500	3414
16.08333	3300
16.09167	3188
16.10000	3079
16.10833	2974
16.11667	2870
16.12500	2769
16.13333	2672
16.14167	2576
16.15000	2483
16.15833	2392
16.16667	2304
16.17500	2219
16.18333	2136
16.19167	2055
16.20000	1977
16.20833	1901
16.21667	1827
16.22500	1756
16.23333	1687
16.24167	1620
16.25000	1556
16.25833	1493
16.26667	1433
16.27500	1375
16.28333	1318
16.29167	1263
16.30000	1211
16.30833	1160
16.31667	1111
16.32500	1064
16.33333	1018
16.34167	975
16.35000	933
16.35833	893
16.36667	854
16.37500	817
16.38333	781
16.39167	747
16.40000	715
16.40833	683
16.41667	653
16.42500	624
16.43333	596
16.44167	569
16.45000	544
16.45833	519
16.46667	496
16.47500	474
16.48333	453
16.49167	433
16.50000	413
16.50833	395
16.51667	377
16.52500	360
16.53333	345
16.54167	330
16.55000	315
16.55833	301
16.56667	288
16.57500	276
16.58333	264
16.59167	252
16.60000	241
16.60833	230
16.61667	220
16.62500	211
16.63333	201
16.64167	192
16.65000	184
16.65833	176
16.66667	169
16.67500	162
16.68333	155
16.69167	149
16.70000	142
16.70833	136
16.71667	131
16.72500	126
16.73333	121
16.74167	116
16.75000	112
16.75833	108
16.76667	104
16.77500	100
16.78333	96
16.79167	92
16.80000	89
16.80833	86
16.81667	83
16.82500	80
16.83333	77
16.84167	74
16.85000	72
16.85833	69
16.86667	66
16.87500	64
16.88333	61
16.89167	59
16.90000	57
16.90833	55
16.91667	53
16.92500	51
16.93333	49
16.94167	47
16.95000	45
16.95833	43
16.96667	42
16.97500	41
16.98333	40
16.99167	38
17.00000	37
17.00833	35
17.01667	34
17.02500	33
17.03333	31
17.04167	30
17.05000	29
17.05833	27
17.06667	26
17.07500	25
17.08333	25
17.09167	23
17.10000	22
17.10833	21
17.11667	20
17.12500	20
17.13333	19
17.14167	18
17.15000	17
17.15833	16
17.16667	15
17.17500	15
17.18333	14
17.19167	14
17.20000	13
17.20833	13
17.21667	12
17.22500	12
17.23333	11
17.24167	11
17.25000	11
17.25833	10
17.26667	10
17.27500	9
17.28333	9
17.29167	8
17.30000	8
17.30833	7
17.31667	7
17.32500	7
17.33333	6
17.34167	7
17.35000	6
17.35833	6
17.36667	6
17.37500	6
17.38333	6
17.39167	6
17.40000	6
17.40833	6
17.41667	6
17.42500	6
17.43333	7
17.44167	7
17.45000	7
17.45833	7
17.46667	7
17.47500	7
17.48333	7
17.49167	7
17.50000	7
17.50833	7
17.51667	8
17.52500	8
17.53333	7
17.54167	8
17.55000	8
17.55833	9
17.56667	9
17.57500	10
17.58333	11
17.59167	12
17.60000	13
17.60833	15
17.61667	16
17.62500	18
17.63333	20
17.64167	23
17.65000	25
17.65833	28
17.66667	31
17.67500	35
17.68333	39
17.69167	45
17.70000	50
17.70833	57
17.71667	64
17.72500	72
17.73333	81
17.74167	92
17.75000	103
17.75833	115
17.76667	128
17.77500	143
17.78333	159
17.79167	178
17.80000	198
17.80833	219
17.81667	243
17.82500	270
17.83333	300
17.84167	332
17.85000	367
17.85833	406
17.86667	447
17.87500	493
17.88333	544
17.89167	599
17.90000	660
17.90833	726
17.91667	799
17.92500	880
17.93333	968
17.94167	1065
17.95000	1171
17.95833	1287
17.96667	1415
17.97500	1555
17.98333	1708
17.99167	1875
18.00000	2058
18.00833	2256
18.01667	2472
18.02500	2706
18.03333	2958
18.04167	3229
18.05000	3519
18.05833	3827
18.06667	4154
18.07500	4499
18.08333	4862
18.09167	5241
18.10000	5633
18.10833	6038
18.11667	6451
18.12500	6870
18.13333	7293
18.14167	7715
18.15000	8134
18.15833	8544
18.16667	8941
18.17500	9321
18.18333	9681
18.19167	10016
18.20000	10322
18.20833	10596
18.21667	10835
18.22500	11035
18.23333	11194
18.24167	11312
18.25000	11386
18.25833	11415
18.26667	11401
18.27500	11343
18.28333	11242
18.29167	11102
18.30000	10923
18.30833	10707
18.31667	10458
18.32500	10179
18.33333	9874
18.34167	9546
18.35000	9198
18.35833	8835
18.36667	8459
18.37500	8076
18.38333	7687
18.39167	7297
18.40000	6908
18.40833	6523
18.41667	6144
18.42500	5774
18.43333	5414
18.44167	5065
18.45000	4730
18.45833	4409
18.46667	4103
18.47500	3813
18.48333	3537
18.49167	3278
18.50000	3034
18.50833	2805
18.51667	2591
18.52500	2391
18.53333	2206
18.54167	2033
18.55000	1873
18.55833	1726
18.56667	1589
18.57500	1463
18.58333	1347
18.59167	1240
18.60000	1141
18.60833	1050
18.61667	967
18.62500	890
18.63333	819
18.64167	754
18.65000	693
18.65833	638
18.66667	587
18.67500	541
18.68333	498
18.69167	459
18.70000	422
18.70833	388
18.71667	357
18.72500	329
18.73333	302
18.74167	278
18.75000	256
18.75833	235
18.76667	215
18.77500	198
18.78333	182
18.79167	167
18.80000	153
18.80833	141
18.81667	129
18.82500	119
18.83333	109
18.84167	100
18.85000	91
18.85833	83
18.86667	76
18.87500	70
18.88333	64
18.89167	59
18.90000	54
18.90833	49
18.91667	45
18.92500	41
18.93333	37
18.94167	34
18.95000	31
18.95833	29
18.96667	26
18.97500	24
18.98333	22
18.99167	20
19.00000	19
19.00833	17
19.01667	16
19.02500	14
19.03333	13
19.04167	11
19.05000	10
19.05833	9
19.06667	9
19.07500	8
19.08333	6
19.09167	5
19.10000	4
19.10833	4
19.11667	3
19.12500	2
19.13333	1
19.14167	0
19.15000	-0
19.15833	-1
19.16667	-2
19.17500	-2
19.18333	-3
19.19167	-3
19.20000	-4
19.20833	-4
19.21667	-5
19.22500	-6
19.23333	-6
19.24167	-6
19.25000	-7
19.25833	-7
19.26667	-7
19.27500	-7
19.28333	-8
19.29167	-8
19.30000	-8
19.30833	-9
19.31667	-9
19.32500	-9
19.33333	-10
19.34167	-10
19.35000	-10
19.35833	-10
19.36667	-11
19.37500	-10
19.38333	-10
19.39167	-11
19.40000	-12
19.40833	-12
19.41667	-12
19.42500	-12
19.43333	-11
19.44167	-11
19.45000	-11
19.45833	-11
19.46667	-12
19.47500	-12
19.48333	-12
19.49167	-12
19.50000	-12
19.50833	-12
19.51667	-13
19.52500	-13
19.53333	-13
19.54167	-13
19.55000	-13
19.55833	-13
19.56667	-13
19.57500	-13
19.58333	-13
19.59167	-13
19.60000	-13
19.60833	-13
19.61667	-13
19.62500	-14
19.63333	-14
19.64167	-14
19.65000	-15
19.65833	-15
19.66667	-15
19.67500	-15
19.68333	-15
19.69167	-15
19.70000	-15
19.70833	-15
19.71667	-15
19.72500	-14
19.73333	-14
19.74167	-15
19.75000	-15
19.75833	-16
19.76667	-16
19.77500	-17
19.78333	-17
19.79167	-17
19.80000	-17
19.80833	-17
19.81667	-17
19.82500	-17
19.83333	-17
19.84167	-17
19.85000	-18
19.85833	-18
19.86667	-19
19.87500	-19
19.88333	-20
19.89167	-20
19.90000	-20
19.90833	-20
19.91667	-20
19.92500	-20
19.93333	-20
19.94167	-20
19.95000	-20
19.95833	-20
19.96667	-20
19.97500	-20
19.98333	-20
19.99167	-20
20.00000	-21
20.00833	-22
20.01667	-22
20.02500	-22
20.03333	-22
20.04167	-22
20.05000	-23
20.05833	-23
20.06667	-23
20.07500	-23
20.08333	-23
20.09167	-24
20.10000	-24
20.10833	-24
20.11667	-25
20.12500	-25
20.13333	-25
20.14167	-25
20.15000	-25
20.15833	-25
20.16667	-25
20.17500	-26
20.18333	-26
20.19167	-26
20.20000	-26
20.20833	-27
20.21667	-27
20.22500	-26
20.23333	-26
20.24167	-26
20.25000	-26
20.25833	-26
20.26667	-26
20.27500	-26
20.28333	-26
20.29167	-26
20.30000	-26
20.30833	-27
20.31667	-27
20.32500	-27
20.33333	-27
20.34167	-27
20.35000	-27
20.35833	-27
20.36667	-28
20.37500	-28
20.38333	-29
20.39167	-29
20.40000	-30
20.40833	-30
20.41667	-30
20.42500	-30
20.43333	-30
20.44167	-30
20.45000	-31
20.45833	-31
20.46667	-31
20.47500	-32
20.48333	-32
20.49167	-33
20.50000	-33
20.50833	-33
20.51667	-33
20.52500	-34
20.53333	-34
20.54167	-34
20.55000	-34
20.55833	-34
20.56667	-34
20.57500	-34
20.58333	-34
20.59167	-34
20.60000	-34
20.60833	-34
20.61667	-34
20.62500	-34
20.63333	-34
20.64167	-34
20.65000	-34
20.65833	-34
20.66667	-35
20.67500	-35
20.68333	-36
20.69167	-36
20.70000	-36
20.70833	-36
20.71667	-37
20.72500	-37
20.73333	-36
20.74167	-36
20.75000	-36
20.75833	-37
20.76667	-37
20.77500	-36
20.78333	-36
20.79167	-36
20.80000	-36
20.80833	-36
20.81667	-36
20.82500	-36
20.83333	-35
20.84167	-35
20.85000	-35
20.85833	-34
20.86667	-34
20.87500	-34
20.88333	-34
20.89167	-34
20.90000	-34
20.90833	-34
20.91667	-34
20.92500	-34
20.93333	-34
20.94167	-34
20.95000	-35
20.95833	-35
20.96667	-35
20.97500	-35
20.98333	-34
20.99167	-34
21.00000	-34
21.00833	-34
21.01667	-34
21.02500	-34
21.03333	-34
21.04167	-34
21.05000	-33
21.05833	-33
21.06667	-32
21.07500	-32
21.08333	-32
21.09167	-32
21.10000	-32
21.10833	-32
21.11667	-33
21.12500	-33
21.13333	-33
21.14167	-33
21.15000	-33
21.15833	-33
21.16667	-33
21.17500	-33
21.18333	-33
21.19167	-33
21.20000	-33
21.20833	-33
21.21667	-32
21.22500	-32
21.23333	-32
21.24167	-32
21.25000	-32
21.25833	-32
21.26667	-32
21.27500	-31
21.28333	-31
21.29167	-31
21.30000	-30
21.30833	-30
21.31667	-30
21.32500	-30
21.33333	-30
21.34167	-31
21.35000	-31
21.35833	-31
21.36667	-31
21.37500	-32
21.38333	-32
21.39167	-31
21.40000	-31
21.40833	-31
21.41667	-31
21.42500	-31
21.43333	-31
21.44167	-32
21.45000	-32
21.45833	-32
21.46667	-32
21.47500	-32
21.48333	-33
21.49167	-33
21.50000	-32
21.50833	-32
21.51667	-32
21.52500	-32
21.53333	-32
21.54167	-32
21.55000	-32
21.55833	-32
21.56667	-32
21.57500	-32
21.58333	-32
21.59167	-32
21.60000	-32
21.60833	-32
21.61667	-32
21.62500	-32
21.63333	-32
21.64167	-31
21.65000	-31
21.65833	-32
21.66667	-32
21.67500	-32
21.68333	-32
21.69167	-33
21.70000	-33
21.70833	-33
21.71667	-32
21.72500	-32
21.73333	-32
21.74167	-32
21.75000	-32
21.75833	-32
21.76667	-33
21.77500	-33
21.78333	-33
21.79167	-33
21.80000	-33
21.80833	-33
21.81667	-33
21.82500	-33
21.83333	-33
21.84167	-34
21.85000	-34
21.85833	-34
21.86667	-35
21.87500	-35
21.88333	-36
21.89167	-36
21.90000	-35
21.90833	-35
21.91667	-35
21.92500	-34
21.93333	-34
21.94167	-33
21.95000	-33
21.95833	-33
21.96667	-34
21.97500	-34
21.98333	-34
21.99167	-34
22.00000	-35
22.00833	-35
22.01667	-35
22.02500	-35
22.03333	-35
22.04167	-35
22.05000	-35
22.05833	-35
22.06667	-35
22.07500	-35
22.08333	-35
22.09167	-35
22.10000	-35
22.10833	-35
22.11667	-35
22.12500	-35
22.13333	-35
22.14167	-35
22.15000	-35
22.15833	-35
22.16667	-35
22.17500	-34
22.18333	-34
22.19167	-34
22.20000	-35
22.20833	-35
22.21667	-35
22.22500	-35
22.23333	-35
22.24167	-35
22.25000	-36
22.25833	-36
22.26667	-37
22.27500	-38
22.28333	-39
22.29167	-39
22.30000	-40
22.30833	-40
22.31667	-42
22.32500	-43
22.33333	-44
22.34167	-45
22.35000	-46
22.35833	-47
22.36667	-49
22.37500	-50
22.38333	-52
22.39167	-54
22.40000	-56
22.40833	-58
22.41667	-60
22.42500	-62
22.43333	-64
22.44167	-67
22.45000	-69
22.45833	-72
22.46667	-74
22.47500	-77
22.48333	-80
22.49167	-83
22.50000	-87
22.50833	-90
22.51667	-93
22.52500	-96
22.53333	-100
22.54167	-103
22.55000	-106
22.55833	-109
22.56667	-112
22.57500	-116
22.58333	-119
22.59167	-121
22.60000	-124
22.60833	-127
22.61667	-131
22.62500	-134
22.63333	-136
22.64167	-138
22.65000	-141
22.65833	-143
22.66667	-145
22.67500	-147
22.68333	-149
22.69167	-150
22.70000	-151
22.70833	-152
22.71667	-152
22.72500	-153
22.73333	-153
22.74167	-152
22.75000	-152
22.75833	-151
22.76667	-150
22.77500	-148
22.78333	-147
22.79167	-145
22.80000	-143
22.80833	-142
22.81667	-139
22.82500	-137
22.83333	-135
22.84167	-132
22.85000	-129
22.85833	-126
22.86667	-124
22.87500	-121
22.88333	-118
22.89167	-115
22.90000	-112
22.90833	-109
22.91667	-105
22.92500	-102
22.93333	-99
22.94167	-96
22.95000	-93
22.95833	-90
22.96667	-87
22.97500	-84
22.98333	-81
22.99167	-78
23.00000	-76
23.00833	-73
23.01667	-70
23.02500	-68
23.03333	-66
23.04167	-63
23.05000	-61
23.05833	-59
23.06667	-57
23.07500	-55
23.08333	-54
23.09167	-52
23.10000	-50
23.10833	-48
23.11667	-47
23.12500	-45
23.13333	-44
23.14167	-44
23.15000	-42
23.15833	-41
23.16667	-40
23.17500	-39
23.18333	-38
23.19167	-37
23.20000	-37
23.20833	-36
23.21667	-36
23.22500	-35
23.23333	-35
23.24167	-34
23.25000	-34
23.25833	-33
23.26667	-33
23.27500	-32
23.28333	-32
23.29167	-31
23.30000	-31
23.30833	-30
23.31667	-30
23.32500	-29
23.33333	-29
23.34167	-29
23.35000	-28
23.35833	-28
23.36667	-28
23.37500	-27
23.38333	-27
23.39167	-26
23.40000	-26
23.40833	-26
23.41667	-26
23.42500	-25
23.43333	-25
23.44167	-24
23.45000	-24
23.45833	-24
23.46667	-24
23.47500	-23
23.48333	-23
23.49167	-23
23.50000	-23
23.50833	-23
23.51667	-23
23.52500	-24
23.53333	-24
23.54167	-24
23.55000	-24
23.55833	-24
23.56667	-23
23.57500	-23
23.58333	-23
23.59167	-22
23.60000	-23
23.60833	-23
23.61667	-22
23.62500	-22
23.63333	-22
23.64167	-22
23.65000	-22
23.65833	-22
23.66667	-22
23.67500	-22
23.68333	-22
23.69167	-22
23.70000	-22
23.70833	-22
23.71667	-22
23.72500	-22
23.73333	-22
23.74167	-22
23.75000	-22
23.75833	-22
23.76667	-22
23.77500	-22
23.78333	-22
23.79167	-22
23.80000	-22
23.80833	-22
23.81667	-22
23.82500	-23
23.83333	-23
23.84167	-23
23.85000	-24
23.85833	-24
23.86667	-24
23.87500	-24
23.88333	-25
23.89167	-25
23.90000	-25
23.90833	-25
23.91667	-26
23.92500	-26
23.93333	-27
23.94167	-27
23.95000	-28
23.95833	-28
23.96667	-29
23.97500	-30
23.98333	-31
23.99167	-32
24.00000	-32
24.00833	-33
24.01667	-33
24.02500	-34
24.03333	-35
24.04167	-35
24.05000	-36
24.05833	-36
24.06667	-36
24.07500	-37
24.08333	-38
24.09167	-39
24.10000	-40
24.10833	-40
24.11667	-42
24.12500	-43
24.13333	-44
24.14167	-45
24.15000	-46
24.15833	-48
24.16667	-49
24.17500	-50
24.18333	-51
24.19167	-52
24.20000	-52
24.20833	-53
24.21667	-55
24.22500	-56
24.23333	-57
24.24167	-58
24.25000	-59
24.25833	-59
24.26667	-60
24.27500	-61
24.28333	-62
24.29167	-63
24.30000	-63
24.30833	-64
24.31667	-65
24.32500	-66
24.33333	-67
24.34167	-67
24.35000	-68
24.35833	-69
24.36667	-69
24.37500	-70
24.38333	-70
24.39167	-71
24.40000	-71
24.40833	-72
24.41667	-72
24.42500	-72
24.43333	-72
24.44167	-71
24.45000	-71
24.45833	-71
24.46667	-70
24.47500	-70
24.48333	-69
24.49167	-69
24.50000	-69
24.50833	-68
24.51667	-67
24.52500	-67
24.53333	-66
24.54167	-65
24.55000	-65
24.55833	-64
24.56667	-63
24.57500	-62
24.58333	-61
24.59167	-60
24.60000	-59
24.60833	-59
24.61667	-58
24.62500	-57
24.63333	-56
24.64167	-55
24.65000	-54
24.65833	-53
24.66667	-52
24.67500	-51
24.68333	-51
24.69167	-50
24.70000	-49
24.70833	-49
24.71667	-48
24.72500	-47
24.73333	-46
24.74167	-46
24.75000	-45
24.75833	-44
24.76667	-43
24.77500	-42
24.78333	-41
24.79167	-40
24.80000	-39
24.80833	-38
24.81667	-38
24.82500	-37
24.83333	-36
24.84167	-35
24.85000	-35
24.85833	-34
24.86667	-34
24.87500	-33
24.88333	-32
24.89167	-31
24.90000	-31
24.90833	-30
24.91667	-30
24.92500	-29
24.93333	-28
24.94167	-27
24.95000	-27
24.95833	-26
24.96667	-26
24.97500	-25
24.98333	-24
24.99167	-23
25.00000	-22
25.00833	-22
25.01667	-21
25.02500	-21
25.03333	-20
25.04167	-20
25.05000	-20
25.05833	-19
25.06667	-19
25.07500	-18
25.08333	-18
25.09167	-17
25.10000	-16
25.10833	-16
25.11667	-15
25.12500	-14
25.13333	-14
25.14167	-13
25.15000	-13
25.15833	-13
25.16667	-12
25.17500	-12
25.18333	-12
25.19167	-11
25.20000	-10
25.20833	-9
25.21667	-8
25.22500	-7
25.23333	-6
25.24167	-4
25.25000	-3
25.25833	-0
25.26667	2
25.27500	4
25.28333	6
25.29167	9
25.30000	12
25.30833	15
25.31667	19
25.32500	23
25.33333	27
25.34167	31
25.35000	36
25.35833	42
25.36667	48
25.37500	55
25.38333	63
25.39167	71
25.40000	81
25.40833	91
25.41667	102
25.42500	114
25.43333	127
25.44167	142
25.45000	157
25.45833	174
25.46667	192
25.47500	212
25.48333	233
25.49167	256
25.50000	281
25.50833	308
25.51667	338
25.52500	369
25.53333	403
25.54167	439
25.55000	478
25.55833	520
25.56667	564
25.57500	613
25.58333	664
25.59167	720
25.60000	779
25.60833	841
25.61667	908
25.62500	980
25.63333	1057
25.64167	1138
25.65000	1225
25.65833	1319
25.66667	1418
25.67500	1524
25.68333	1637
25.69167	1757
25.70000	1886
25.70833	2023
25.71667	2168
25.72500	2324
25.73333	2489
25.74167	2666
25.75000	2853
25.75833	3053
25.76667	3266
25.77500	3493
25.78333	3734
25.79167	3991
25.80000	4266
25.80833	4558
25.81667	4870
25.82500	5201
25.83333	5553
25.84167	5928
25.85000	6327
25.85833	6750
25.86667	7199
25.87500	7675
25.88333	8179
25.89167	8712
25.90000	9275
25.90833	9870
25.91667	10496
25.92500	11154
25.93333	11845
25.94167	12568
25.95000	13323
25.95833	14109
25.96667	14926
25.97500	15772
25.98333	16646
25.99167	17545
26.00000	18468
26.00833	19411
26.01667	20372
26.02500	21347
26.03333	22331
26.04167	23321
26.05000	24313
26.05833	25302
26.06667	26281
26.07500	27248
26.08333	28195
26.09167	29119
26.10000	30014
26.10833	30875
26.11667	31697
26.12500	32475
26.13333	33205
26.14167	33882
26.15000	34503
26.15833	35064
26.16667	35562
26.17500	35996
26.18333	36362
26.19167	36660
26.20000	36887
26.20833	37044
26.21667	37131
26.22500	37147
26.23333	37094
26.24167	36973
26.25000	36786
26.25833	36534
26.26667	36219
26.27500	35845
26.28333	35414
26.29167	34929
26.30000	34394
26.30833	33811
26.31667	33186
26.32500	32520
26.33333	31817
26.34167	31081
26.35000	30317
26.35833	29528
26.36667	28716
26.37500	27887
26.38333	27042
26.39167	26187
26.40000	25323
26.40833	24455
26.41667	23585
26.42500	22717
26.43333	21852
26.44167	20993
26.45000	20143
26.45833	19304
26.46667	18477
26.47500	17665
26.48333	16868
26.49167	16090
26.50000	15330
26.50833	14590
26.51667	13872
26.52500	13175
26.53333	12500
26.54167	11848
26.55000	11219
26.55833	10614
26.56667	10033
26.57500	9475
26.58333	8941
26.59167	8430
26.60000	7943
26.60833	7478
26.61667	7034
26.62500	6613
26.63333	6213
26.64167	5832
26.65000	5472
26.65833	5132
26.66667	4809
26.67500	4505
26.68333	4218
26.69167	3947
26.70000	3692
26.70833	3452
26.71667	3226
26.72500	3014
26.73333	2816
26.74167	2630
26.75000	2455
26.75833	2292
26.76667	2139
26.77500	1995
26.78333	1861
26.79167	1736
26.80000	1619
26.80833	1509
26.81667	1406
26.82500	1310
26.83333	1221
26.84167	1138
26.85000	1060
26.85833	987
26.86667	920
26.87500	857
26.88333	798
26.89167	743
26.90000	692
26.90833	645
26.91667	601
26.92500	560
26.93333	522
26.94167	486
26.95000	453
26.95833	423
26.96667	394
26.97500	368
26.98333	343
26.99167	320
27.00000	298
27.00833	278
27.01667	260
27.02500	243
27.03333	227
27.04167	212
27.05000	198
27.05833	185
27.06667	173
27.07500	162
27.08333	152
27.09167	142
27.10000	133
27.10833	125
27.11667	117
27.12500	110
27.13333	103
27.14167	96
27.15000	90
27.15833	85
27.16667	80
27.17500	75
27.18333	71
27.19167	67
27.20000	63
27.20833	59
27.21667	56
27.22500	52
27.23333	49
27.24167	45
27.25000	43
27.25833	40
27.26667	38
27.27500	35
27.28333	34
27.29167	32
27.30000	30
27.30833	29
27.31667	27
27.32500	25
27.33333	24
27.34167	22
27.35000	21
27.35833	20
27.36667	19
27.37500	17
27.38333	16
27.39167	15
27.40000	14
27.40833	13
27.41667	12
27.42500	11
27.43333	10
27.44167	9
27.45000	9
27.45833	8
27.46667	7
27.47500	6
27.48333	6
27.49167	5
27.50000	4
27.50833	3
27.51667	3
27.52500	2
27.53333	2
27.54167	1
27.55000	1
27.55833	1
27.56667	0
27.57500	0
27.58333	0
27.59167	-0
27.60000	-0
27.60833	-1
27.61667	-1
27.62500	-2
27.63333	-2
27.64167	-2
27.65000	-3
27.65833	-3
27.66667	-4
27.67500	-4
27.68333	-4
27.69167	-5
27.70000	-5
27.70833	-5
27.71667	-6
27.72500	-6
27.73333	-6
27.74167	-7
27.75000	-7
27.75833	-7
27.76667	-7
27.77500	-7
27.78333	-8
27.79167	-8
27.80000	-8
27.80833	-8
27.81667	-8
27.82500	-9
27.83333	-9
27.84167	-9
27.85000	-10
27.85833	-10
27.86667	-10
27.87500	-11
27.88333	-11
27.89167	-11
27.90000	-11
27.90833	-11
27.91667	-11
27.92500	-11
27.93333	-11
27.94167	-11
27.95000	-12
27.95833	-12
27.96667	-13
27.97500	-13
27.98333	-13
27.99167	-13
28.00000	-13

