R.Time (min)	Intensity
0.00000	-2
0.00833	-2
0.01667	0
0.02500	0
0.03333	-0
0.04167	-0
0.05000	-1
0.05833	-2
0.06667	-2
0.07500	-2
0.08333	-1
0.09167	-1
0.10000	-1
0.10833	-1
0.11667	-0
0.12500	0
0.13333	0
0.14167	1
0.15000	2
0.15833	2
0.16667	3
0.17500	3
0.18333	3
0.19167	3
0.20000	3
0.20833	3
0.21667	3
0.22500	3
0.23333	3
0.24167	3
0.25000	4
0.25833	4
0.26667	4
0.27500	5
0.28333	5
0.29167	5
0.30000	5
0.30833	5
0.31667	6
0.32500	6
0.33333	6
0.34167	7
0.35000	7
0.35833	7
0.36667	6
0.37500	6
0.38333	6
0.39167	6
0.40000	6
0.40833	6
0.41667	6
0.42500	6
0.43333	6
0.44167	6
0.45000	5
0.45833	5
0.46667	5
0.47500	5
0.48333	5
0.49167	4
0.50000	4
0.50833	3
0.51667	3
0.52500	3
0.53333	3
0.54167	3
0.55000	3
0.55833	3
0.56667	3
0.57500	3
0.58333	3
0.59167	3
0.60000	4
0.60833	4
0.61667	4
0.62500	5
0.63333	5
0.64167	5
0.65000	5
0.65833	5
0.66667	5
0.67500	6
0.68333	6
0.69167	6
0.70000	7
0.70833	7
0.71667	8
0.72500	8
0.73333	8
0.74167	8
0.75000	8
0.75833	9
0.76667	9
0.77500	9
0.78333	9
0.79167	9
0.80000	9
0.80833	10
0.81667	10
0.82500	11
0.83333	11
0.84167	11
0.85000	12
0.85833	12
0.86667	12
0.87500	12
0.88333	12
0.89167	12
0.90000	12
0.90833	12
0.91667	12
0.92500	12
0.93333	12
0.94167	13
0.95000	13
0.95833	12
0.96667	13
0.97500	13
0.98333	13
0.99167	13
1.00000	13
1.00833	13
1.01667	13
1.02500	12
1.03333	13
1.04167	13
1.05000	13
1.05833	13
1.06667	13
1.07500	13
1.08333	13
1.09167	14
1.10000	14
1.10833	14
1.11667	14
1.12500	14
1.13333	13
1.14167	13
1.15000	13
1.15833	13
1.16667	13
1.17500	13
1.18333	13
1.19167	13
1.20000	13
1.20833	13
1.21667	13
1.22500	13
1.23333	13
1.24167	13
1.25000	14
1.25833	14
1.26667	13
1.27500	13
1.28333	13
1.29167	13
1.30000	13
1.30833	13
1.31667	13
1.32500	13
1.33333	13
1.34167	13
1.35000	13
1.35833	13
1.36667	13
1.37500	13
1.38333	13
1.39167	14
1.40000	14
1.40833	14
1.41667	15
1.42500	15
1.43333	16
1.44167	16
1.45000	16
1.45833	17
1.46667	17
1.47500	17
1.48333	17
1.49167	17
1.50000	18
1.50833	18
1.51667	19
1.52500	19
1.53333	20
1.54167	20
1.55000	19
1.55833	19
1.56667	19
1.57500	19
1.58333	18
1.59167	18
1.60000	19
1.60833	19
1.61667	19
1.62500	19
1.63333	19
1.64167	19
1.65000	20
1.65833	20
1.66667	20
1.67500	19
1.68333	19
1.69167	19
1.70000	19
1.70833	19
1.71667	19
1.72500	18
1.73333	18
1.74167	18
1.75000	17
1.75833	17
1.76667	17
1.77500	18
1.78333	18
1.79167	18
1.80000	18
1.80833	18
1.81667	18
1.82500	18
1.83333	18
1.84167	17
1.85000	17
1.85833	17
1.86667	17
1.87500	17
1.88333	17
1.89167	17
1.90000	17
1.90833	17
1.91667	17
1.92500	17
1.93333	17
1.94167	17
1.95000	18
1.95833	18
1.96667	18
1.97500	18
1.98333	19
1.99167	19
2.00000	19
2.00833	19
2.01667	20
2.02500	20
2.03333	20
2.04167	20
2.05000	20
2.05833	20
2.06667	20
2.07500	20
2.08333	21
2.09167	21
2.10000	22
2.10833	22
2.11667	22
2.12500	22
2.13333	23
2.14167	23
2.15000	23
2.15833	23
2.16667	24
2.17500	24
2.18333	24
2.19167	23
2.20000	23
2.20833	24
2.21667	24
2.22500	24
2.23333	24
2.24167	24
2.25000	25
2.25833	25
2.26667	25
2.27500	24
2.28333	24
2.29167	25
2.30000	25
2.30833	25
2.31667	25
2.32500	25
2.33333	24
2.34167	24
2.35000	24
2.35833	24
2.36667	24
2.37500	24
2.38333	25
2.39167	25
2.40000	25
2.40833	25
2.41667	24
2.42500	24
2.43333	24
2.44167	24
2.45000	23
2.45833	23
2.46667	23
2.47500	23
2.48333	23
2.49167	23
2.50000	23
2.50833	22
2.51667	22
2.52500	22
2.53333	22
2.54167	22
2.55000	22
2.55833	22
2.56667	22
2.57500	22
2.58333	22
2.59167	22
2.60000	22
2.60833	22
2.61667	23
2.62500	23
2.63333	23
2.64167	24
2.65000	24
2.65833	25
2.66667	25
2.67500	26
2.68333	26
2.69167	26
2.70000	26
2.70833	26
2.71667	26
2.72500	27
2.73333	27
2.74167	27
2.75000	28
2.75833	28
2.76667	28
2.77500	29
2.78333	29
2.79167	30
2.80000	30
2.80833	30
2.81667	31
2.82500	31
2.83333	31
2.84167	30
2.85000	30
2.85833	30
2.86667	30
2.87500	30
2.88333	30
2.89167	29
2.90000	29
2.90833	29
2.91667	29
2.92500	28
2.93333	28
2.94167	28
2.95000	28
2.95833	28
2.96667	28
2.97500	28
2.98333	28
2.99167	28
3.00000	28
3.00833	28
3.01667	28
3.02500	28
3.03333	28
3.04167	28
3.05000	27
3.05833	27
3.06667	27
3.07500	27
3.08333	27
3.09167	27
3.10000	27
3.10833	27
3.11667	27
3.12500	27
3.13333	27
3.14167	27
3.15000	27
3.15833	27
3.16667	28
3.17500	28
3.18333	28
3.19167	28
3.20000	28
3.20833	28
3.21667	28
3.22500	28
3.23333	28
3.24167	28
3.25000	28
3.25833	28
3.26667	28
3.27500	28
3.28333	28
3.29167	28
3.30000	29
3.30833	29
3.31667	29
3.32500	29
3.33333	30
3.34167	30
3.35000	30
3.35833	30
3.36667	30
3.37500	30
3.38333	31
3.39167	31
3.40000	31
3.40833	31
3.41667	31
3.42500	31
3.43333	31
3.44167	31
3.45000	31
3.45833	31
3.46667	31
3.47500	31
3.48333	31
3.49167	31
3.50000	31
3.50833	31
3.51667	30
3.52500	30
3.53333	30
3.54167	29
3.55000	29
3.55833	30
3.56667	30
3.57500	30
3.58333	30
3.59167	31
3.60000	30
3.60833	30
3.61667	29
3.62500	29
3.63333	29
3.64167	29
3.65000	29
3.65833	30
3.66667	30
3.67500	30
3.68333	30
3.69167	30
3.70000	30
3.70833	30
3.71667	30
3.72500	30
3.73333	30
3.74167	30
3.75000	30
3.75833	31
3.76667	31
3.77500	31
3.78333	31
3.79167	32
3.80000	32
3.80833	32
3.81667	32
3.82500	31
3.83333	31
3.84167	32
3.85000	32
3.85833	32
3.86667	32
3.87500	32
3.88333	32
3.89167	32
3.90000	32
3.90833	32
3.91667	32
3.92500	33
3.93333	32
3.94167	32
3.95000	32
3.95833	33
3.96667	33
3.97500	33
3.98333	33
3.99167	33
4.00000	34
4.00833	34
4.01667	34
4.02500	34
4.03333	34
4.04167	34
4.05000	33
4.05833	33
4.06667	33
4.07500	33
4.08333	34
4.09167	34
4.10000	34
4.10833	35
4.11667	36
4.12500	36
4.13333	37
4.14167	38
4.15000	38
4.15833	38
4.16667	39
4.17500	39
4.18333	39
4.19167	40
4.20000	41
4.20833	41
4.21667	41
4.22500	42
4.23333	42
4.24167	42
4.25000	42
4.25833	43
4.26667	43
4.27500	44
4.28333	44
4.29167	45
4.30000	45
4.30833	46
4.31667	46
4.32500	47
4.33333	47
4.34167	48
4.35000	48
4.35833	48
4.36667	48
4.37500	48
4.38333	49
4.39167	50
4.40000	50
4.40833	51
4.41667	51
4.42500	51
4.43333	52
4.44167	52
4.45000	52
4.45833	52
4.46667	53
4.47500	53
4.48333	53
4.49167	54
4.50000	55
4.50833	55
4.51667	56
4.52500	56
4.53333	56
4.54167	56
4.55000	56
4.55833	56
4.56667	56
4.57500	56
4.58333	56
4.59167	56
4.60000	57
4.60833	57
4.61667	57
4.62500	57
4.63333	58
4.64167	58
4.65000	58
4.65833	59
4.66667	59
4.67500	59
4.68333	59
4.69167	60
4.70000	61
4.70833	62
4.71667	62
4.72500	63
4.73333	64
4.74167	64
4.75000	64
4.75833	64
4.76667	64
4.77500	65
4.78333	66
4.79167	67
4.80000	67
4.80833	67
4.81667	68
4.82500	68
4.83333	69
4.84167	70
4.85000	70
4.85833	70
4.86667	71
4.87500	71
4.88333	72
4.89167	72
4.90000	73
4.90833	73
4.91667	74
4.92500	74
4.93333	75
4.94167	75
4.95000	75
4.95833	75
4.96667	75
4.97500	76
4.98333	76
4.99167	76
5.00000	77
5.00833	77
5.01667	78
5.02500	78
5.03333	78
5.04167	79
5.05000	79
5.05833	79
5.06667	80
5.07500	80
5.08333	80
5.09167	81
5.10000	82
5.10833	83
5.11667	83
5.12500	83
5.13333	84
5.14167	84
5.15000	85
5.15833	86
5.16667	86
5.17500	87
5.18333	88
5.19167	88
5.20000	88
5.20833	89
5.21667	89
5.22500	89
5.23333	89
5.24167	90
5.25000	90
5.25833	90
5.26667	90
5.27500	91
5.28333	91
5.29167	91
5.30000	92
5.30833	93
5.31667	93
5.32500	94
5.33333	94
5.34167	95
5.35000	95
5.35833	95
5.36667	96
5.37500	96
5.38333	96
5.39167	97
5.40000	97
5.40833	97
5.41667	98
5.42500	98
5.43333	99
5.44167	99
5.45000	99
5.45833	99
5.46667	100
5.47500	100
5.48333	100
5.49167	101
5.50000	102
5.50833	103
5.51667	104
5.52500	104
5.53333	105
5.54167	106
5.55000	107
5.55833	107
5.56667	107
5.57500	108
5.58333	108
5.59167	109
5.60000	109
5.60833	110
5.61667	111
5.62500	111
5.63333	112
5.64167	113
5.65000	113
5.65833	114
5.66667	115
5.67500	115
5.68333	115
5.69167	116
5.70000	116
5.70833	117
5.71667	118
5.72500	118
5.73333	118
5.74167	119
5.75000	119
5.75833	120
5.76667	120
5.77500	120
5.78333	121
5.79167	121
5.80000	122
5.80833	122
5.81667	122
5.82500	123
5.83333	123
5.84167	124
5.85000	125
5.85833	125
5.86667	125
5.87500	125
5.88333	126
5.89167	126
5.90000	126
5.90833	126
5.91667	127
5.92500	127
5.93333	128
5.94167	129
5.95000	129
5.95833	130
5.96667	130
5.97500	131
5.98333	131
5.99167	132
6.00000	133
6.00833	134
6.01667	135
6.02500	136
6.03333	136
6.04167	136
6.05000	137
6.05833	138
6.06667	139
6.07500	140
6.08333	140
6.09167	140
6.10000	141
6.10833	141
6.11667	142
6.12500	143
6.13333	144
6.14167	146
6.15000	146
6.15833	147
6.16667	147
6.17500	148
6.18333	148
6.19167	149
6.20000	150
6.20833	150
6.21667	151
6.22500	152
6.23333	153
6.24167	153
6.25000	154
6.25833	155
6.26667	155
6.27500	156
6.28333	157
6.29167	157
6.30000	157
6.30833	157
6.31667	157
6.32500	158
6.33333	159
6.34167	160
6.35000	160
6.35833	161
6.36667	161
6.37500	161
6.38333	161
6.39167	162
6.40000	163
6.40833	163
6.41667	164
6.42500	164
6.43333	164
6.44167	165
6.45000	165
6.45833	165
6.46667	166
6.47500	166
6.48333	167
6.49167	167
6.50000	168
6.50833	168
6.51667	169
6.52500	170
6.53333	170
6.54167	171
6.55000	172
6.55833	172
6.56667	172
6.57500	173
6.58333	174
6.59167	174
6.60000	175
6.60833	175
6.61667	176
6.62500	176
6.63333	177
6.64167	177
6.65000	177
6.65833	178
6.66667	178
6.67500	179
6.68333	180
6.69167	180
6.70000	181
6.70833	182
6.71667	182
6.72500	183
6.73333	184
6.74167	185
6.75000	185
6.75833	186
6.76667	187
6.77500	187
6.78333	188
6.79167	188
6.80000	189
6.80833	189
6.81667	189
6.82500	189
6.83333	189
6.84167	190
6.85000	190
6.85833	191
6.86667	192
6.87500	192
6.88333	193
6.89167	194
6.90000	194
6.90833	195
6.91667	196
6.92500	196
6.93333	197
6.94167	198
6.95000	198
6.95833	199
6.96667	200
6.97500	201
6.98333	202
6.99167	203
7.00000	203
7.00833	204
7.01667	204
7.02500	204
7.03333	205
7.04167	206
7.05000	206
7.05833	207
7.06667	207
7.07500	208
7.08333	208
7.09167	208
7.10000	209
7.10833	209
7.11667	209
7.12500	210
7.13333	210
7.14167	210
7.15000	211
7.15833	211
7.16667	211
7.17500	211
7.18333	212
7.19167	212
7.20000	213
7.20833	213
7.21667	213
7.22500	213
7.23333	214
7.24167	214
7.25000	215
7.25833	215
7.26667	215
7.27500	215
7.28333	216
7.29167	216
7.30000	216
7.30833	216
7.31667	216
7.32500	215
7.33333	214
7.34167	213
7.35000	211
7.35833	208
7.36667	204
7.37500	198
7.38333	189
7.39167	176
7.40000	156
7.40833	129
7.41667	91
7.42500	39
7.43333	-30
7.44167	-121
7.45000	-239
7.45833	-387
7.46667	-569
7.47500	-789
7.48333	-1046
7.49167	-1340
7.50000	-1667
7.50833	-2022
7.51667	-2395
7.52500	-2774
7.53333	-3149
7.54167	-3505
7.55000	-3829
7.55833	-4111
7.56667	-4340
7.57500	-4509
7.58333	-4614
7.59167	-4653
7.60000	-4628
7.60833	-4543
7.61667	-4404
7.62500	-4220
7.63333	-3998
7.64167	-3749
7.65000	-3481
7.65833	-3202
7.66667	-2920
7.67500	-2642
7.68333	-2372
7.69167	-2115
7.70000	-1874
7.70833	-1651
7.71667	-1446
7.72500	-1260
7.73333	-1092
7.74167	-942
7.75000	-809
7.75833	-690
7.76667	-586
7.77500	-494
7.78333	-413
7.79167	-342
7.80000	-280
7.80833	-225
7.81667	-176
7.82500	-133
7.83333	-94
7.84167	-60
7.85000	-30
7.85833	-3
7.86667	21
7.87500	42
7.88333	62
7.89167	80
7.90000	96
7.90833	110
7.91667	123
7.92500	135
7.93333	146
7.94167	155
7.95000	165
7.95833	173
7.96667	181
7.97500	188
7.98333	194
7.99167	200
8.00000	206
8.00833	211
8.01667	216
8.02500	221
8.03333	226
8.04167	231
8.05000	235
8.05833	240
8.06667	246
8.07500	251
8.08333	257
8.09167	263
8.10000	269
8.10833	276
8.11667	282
8.12500	288
8.13333	295
8.14167	301
8.15000	308
8.15833	314
8.16667	320
8.17500	326
8.18333	330
8.19167	334
8.20000	337
8.20833	339
8.21667	341
8.22500	342
8.23333	343
8.24167	342
8.25000	342
8.25833	341
8.26667	339
8.27500	337
8.28333	335
8.29167	332
8.30000	329
8.30833	325
8.31667	322
8.32500	319
8.33333	315
8.34167	312
8.35000	309
8.35833	306
8.36667	303
8.37500	301
8.38333	299
8.39167	297
8.40000	295
8.40833	293
8.41667	292
8.42500	290
8.43333	289
8.44167	287
8.45000	286
8.45833	284
8.46667	283
8.47500	281
8.48333	280
8.49167	279
8.50000	278
8.50833	277
8.51667	276
8.52500	275
8.53333	274
8.54167	273
8.55000	273
8.55833	272
8.56667	272
8.57500	271
8.58333	271
8.59167	271
8.60000	271
8.60833	271
8.61667	272
8.62500	273
8.63333	275
8.64167	277
8.65000	280
8.65833	283
8.66667	288
8.67500	293
8.68333	300
8.69167	308
8.70000	318
8.70833	329
8.71667	343
8.72500	360
8.73333	381
8.74167	406
8.75000	437
8.75833	475
8.76667	522
8.77500	580
8.78333	651
8.79167	739
8.80000	846
8.80833	977
8.81667	1135
8.82500	1325
8.83333	1552
8.84167	1821
8.85000	2135
8.85833	2498
8.86667	2912
8.87500	3381
8.88333	3901
8.89167	4473
8.90000	5092
8.90833	5751
8.91667	6442
8.92500	7156
8.93333	7879
8.94167	8599
8.95000	9302
8.95833	9972
8.96667	10595
8.97500	11159
8.98333	11649
8.99167	12057
9.00000	12374
9.00833	12594
9.01667	12714
9.02500	12734
9.03333	12657
9.04167	12487
9.05000	12232
9.05833	11900
9.06667	11500
9.07500	11044
9.08333	10543
9.09167	10008
9.10000	9450
9.10833	8879
9.11667	8304
9.12500	7735
9.13333	7178
9.14167	6638
9.15000	6121
9.15833	5632
9.16667	5171
9.17500	4740
9.18333	4341
9.19167	3974
9.20000	3637
9.20833	3331
9.21667	3052
9.22500	2799
9.23333	2572
9.24167	2368
9.25000	2184
9.25833	2019
9.26667	1870
9.27500	1737
9.28333	1617
9.29167	1509
9.30000	1412
9.30833	1324
9.31667	1245
9.32500	1172
9.33333	1106
9.34167	1046
9.35000	990
9.35833	938
9.36667	890
9.37500	845
9.38333	804
9.39167	765
9.40000	729
9.40833	696
9.41667	664
9.42500	635
9.43333	607
9.44167	581
9.45000	557
9.45833	535
9.46667	514
9.47500	495
9.48333	477
9.49167	460
9.50000	444
9.50833	430
9.51667	417
9.52500	405
9.53333	393
9.54167	383
9.55000	374
9.55833	366
9.56667	358
9.57500	351
9.58333	344
9.59167	338
9.60000	332
9.60833	327
9.61667	322
9.62500	318
9.63333	314
9.64167	311
9.65000	308
9.65833	305
9.66667	302
9.67500	300
9.68333	297
9.69167	295
9.70000	294
9.70833	292
9.71667	290
9.72500	288
9.73333	286
9.74167	285
9.75000	285
9.75833	284
9.76667	283
9.77500	282
9.78333	280
9.79167	279
9.80000	278
9.80833	277
9.81667	276
9.82500	276
9.83333	275
9.84167	274
9.85000	274
9.85833	274
9.86667	273
9.87500	273
9.88333	272
9.89167	272
9.90000	271
9.90833	271
9.91667	271
9.92500	270
9.93333	269
9.94167	269
9.95000	269
9.95833	269
9.96667	269
9.97500	268
9.98333	268
9.99167	269
10.00000	269
10.00833	269
10.01667	268
10.02500	268
10.03333	268
10.04167	267
10.05000	267
10.05833	267
10.06667	268
10.07500	268
10.08333	268
10.09167	268
10.10000	268
10.10833	268
10.11667	267
10.12500	267
10.13333	267
10.14167	267
10.15000	267
10.15833	267
10.16667	267
10.17500	267
10.18333	267
10.19167	267
10.20000	267
10.20833	267
10.21667	267
10.22500	267
10.23333	267
10.24167	267
10.25000	267
10.25833	267
10.26667	266
10.27500	266
10.28333	265
10.29167	265
10.30000	266
10.30833	266
10.31667	266
10.32500	266
10.33333	266
10.34167	266
10.35000	266
10.35833	266
10.36667	266
10.37500	266
10.38333	266
10.39167	265
10.40000	265
10.40833	265
10.41667	265
10.42500	265
10.43333	265
10.44167	265
10.45000	264
10.45833	265
10.46667	264
10.47500	264
10.48333	264
10.49167	264
10.50000	264
10.50833	264
10.51667	264
10.52500	264
10.53333	264
10.54167	265
10.55000	265
10.55833	265
10.56667	266
10.57500	266
10.58333	266
10.59167	267
10.60000	269
10.60833	270
10.61667	272
10.62500	274
10.63333	277
10.64167	280
10.65000	284
10.65833	289
10.66667	295
10.67500	301
10.68333	309
10.69167	318
10.70000	328
10.70833	340
10.71667	354
10.72500	370
10.73333	389
10.74167	410
10.75000	435
10.75833	464
10.76667	497
10.77500	536
10.78333	581
10.79167	633
10.80000	694
10.80833	766
10.81667	851
10.82500	950
10.83333	1067
10.84167	1205
10.85000	1366
10.85833	1554
10.86667	1773
10.87500	2027
10.88333	2319
10.89167	2653
10.90000	3032
10.90833	3457
10.91667	3930
10.92500	4450
10.93333	5017
10.94167	5625
10.95000	6271
10.95833	6947
10.96667	7646
10.97500	8356
10.98333	9068
10.99167	9768
11.00000	10444
11.00833	11082
11.01667	11671
11.02500	12198
11.03333	12653
11.04167	13027
11.05000	13312
11.05833	13504
11.06667	13600
11.07500	13600
11.08333	13506
11.09167	13322
11.10000	13054
11.10833	12711
11.11667	12301
11.12500	11834
11.13333	11322
11.14167	10774
11.15000	10201
11.15833	9612
11.16667	9018
11.17500	8425
11.18333	7841
11.19167	7273
11.20000	6726
11.20833	6204
11.21667	5710
11.22500	5246
11.23333	4813
11.24167	4411
11.25000	4040
11.25833	3699
11.26667	3388
11.27500	3104
11.28333	2846
11.29167	2613
11.30000	2403
11.30833	2213
11.31667	2042
11.32500	1887
11.33333	1747
11.34167	1621
11.35000	1507
11.35833	1404
11.36667	1311
11.37500	1225
11.38333	1148
11.39167	1077
11.40000	1012
11.40833	952
11.41667	898
11.42500	847
11.43333	800
11.44167	756
11.45000	716
11.45833	679
11.46667	644
11.47500	612
11.48333	582
11.49167	554
11.50000	528
11.50833	505
11.51667	483
11.52500	463
11.53333	444
11.54167	427
11.55000	411
11.55833	396
11.56667	383
11.57500	371
11.58333	359
11.59167	349
11.60000	339
11.60833	330
11.61667	322
11.62500	315
11.63333	309
11.64167	303
11.65000	298
11.65833	293
11.66667	289
11.67500	285
11.68333	281
11.69167	278
11.70000	275
11.70833	271
11.71667	268
11.72500	266
11.73333	264
11.74167	262
11.75000	260
11.75833	259
11.76667	257
11.77500	256
11.78333	255
11.79167	254
11.80000	254
11.80833	253
11.81667	253
11.82500	252
11.83333	252
11.84167	252
11.85000	252
11.85833	252
11.86667	253
11.87500	253
11.88333	254
11.89167	255
11.90000	255
11.90833	256
11.91667	256
11.92500	256
11.93333	256
11.94167	256
11.95000	255
11.95833	255
11.96667	254
11.97500	253
11.98333	252
11.99167	250
12.00000	249
12.00833	248
12.01667	246
12.02500	245
12.03333	243
12.04167	241
12.05000	239
12.05833	237
12.06667	236
12.07500	234
12.08333	232
12.09167	230
12.10000	228
12.10833	226
12.11667	224
12.12500	222
12.13333	221
12.14167	220
12.15000	218
12.15833	217
12.16667	217
12.17500	216
12.18333	215
12.19167	214
12.20000	213
12.20833	212
12.21667	211
12.22500	210
12.23333	209
12.24167	208
12.25000	208
12.25833	207
12.26667	206
12.27500	205
12.28333	205
12.29167	204
12.30000	204
12.30833	203
12.31667	202
12.32500	201
12.33333	201
12.34167	201
12.35000	201
12.35833	200
12.36667	200
12.37500	200
12.38333	199
12.39167	198
12.40000	198
12.40833	197
12.41667	197
12.42500	196
12.43333	195
12.44167	195
12.45000	194
12.45833	194
12.46667	193
12.47500	192
12.48333	192
12.49167	191
12.50000	191
12.50833	190
12.51667	190
12.52500	189
12.53333	189
12.54167	188
12.55000	188
12.55833	187
12.56667	186
12.57500	185
12.58333	185
12.59167	184
12.60000	184
12.60833	184
12.61667	184
12.62500	183
12.63333	183
12.64167	183
12.65000	182
12.65833	181
12.66667	180
12.67500	180
12.68333	179
12.69167	179
12.70000	178
12.70833	178
12.71667	178
12.72500	177
12.73333	177
12.74167	177
12.75000	176
12.75833	176
12.76667	175
12.77500	175
12.78333	174
12.79167	174
12.80000	173
12.80833	173
12.81667	173
12.82500	173
12.83333	172
12.84167	172
12.85000	171
12.85833	171
12.86667	171
12.87500	170
12.88333	170
12.89167	170
12.90000	169
12.90833	169
12.91667	169
12.92500	168
12.93333	167
12.94167	167
12.95000	166
12.95833	166
12.96667	165
12.97500	165
12.98333	164
12.99167	164
13.00000	163
13.00833	163
13.01667	162
13.02500	162
13.03333	162
13.04167	161
13.05000	161
13.05833	161
13.06667	160
13.07500	160
13.08333	159
13.09167	159
13.10000	158
13.10833	157
13.11667	156
13.12500	156
13.13333	155
13.14167	154
13.15000	153
13.15833	152
13.16667	152
13.17500	151
13.18333	151
13.19167	151
13.20000	150
13.20833	149
13.21667	148
13.22500	148
13.23333	148
13.24167	148
13.25000	148
13.25833	147
13.26667	147
13.27500	146
13.28333	146
13.29167	145
13.30000	144
13.30833	144
13.31667	143
13.32500	142
13.33333	142
13.34167	141
13.35000	141
13.35833	141
13.36667	140
13.37500	140
13.38333	140
13.39167	140
13.40000	140
13.40833	140
13.41667	139
13.42500	139
13.43333	139
13.44167	138
13.45000	138
13.45833	138
13.46667	138
13.47500	138
13.48333	138
13.49167	138
13.50000	138
13.50833	138
13.51667	138
13.52500	139
13.53333	140
13.54167	140
13.55000	141
13.55833	142
13.56667	143
13.57500	144
13.58333	145
13.59167	146
13.60000	147
13.60833	148
13.61667	150
13.62500	152
13.63333	153
13.64167	155
13.65000	157
13.65833	159
13.66667	161
13.67500	162
13.68333	164
13.69167	165
13.70000	166
13.70833	167
13.71667	167
13.72500	167
13.73333	167
13.74167	167
13.75000	167
13.75833	166
13.76667	165
13.77500	164
13.78333	163
13.79167	161
13.80000	159
13.80833	157
13.81667	155
13.82500	152
13.83333	150
13.84167	148
13.85000	146
13.85833	143
13.86667	141
13.87500	139
13.88333	137
13.89167	135
13.90000	133
13.90833	132
13.91667	130
13.92500	128
13.93333	127
13.94167	125
13.95000	123
13.95833	121
13.96667	119
13.97500	118
13.98333	117
13.99167	116
14.00000	115
14.00833	114
14.01667	114
14.02500	113
14.03333	112
14.04167	112
14.05000	111
14.05833	111
14.06667	111
14.07500	111
14.08333	110
14.09167	110
14.10000	109
14.10833	109
14.11667	108
14.12500	108
14.13333	108
14.14167	108
14.15000	107
14.15833	107
14.16667	107
14.17500	108
14.18333	108
14.19167	108
14.20000	108
14.20833	108
14.21667	108
14.22500	108
14.23333	108
14.24167	108
14.25000	108
14.25833	108
14.26667	108
14.27500	108
14.28333	108
14.29167	108
14.30000	108
14.30833	109
14.31667	109
14.32500	109
14.33333	110
14.34167	111
14.35000	111
14.35833	111
14.36667	112
14.37500	112
14.38333	112
14.39167	113
14.40000	113
14.40833	114
14.41667	114
14.42500	114
14.43333	114
14.44167	115
14.45000	116
14.45833	116
14.46667	117
14.47500	119
14.48333	120
14.49167	121
14.50000	122
14.50833	123
14.51667	124
14.52500	125
14.53333	126
14.54167	127
14.55000	128
14.55833	130
14.56667	131
14.57500	132
14.58333	133
14.59167	134
14.60000	136
14.60833	138
14.61667	140
14.62500	141
14.63333	143
14.64167	145
14.65000	147
14.65833	149
14.66667	151
14.67500	153
14.68333	155
14.69167	157
14.70000	160
14.70833	162
14.71667	165
14.72500	168
14.73333	171
14.74167	174
14.75000	178
14.75833	181
14.76667	185
14.77500	188
14.78333	191
14.79167	195
14.80000	198
14.80833	202
14.81667	206
14.82500	211
14.83333	216
14.84167	221
14.85000	226
14.85833	231
14.86667	236
14.87500	242
14.88333	248
14.89167	254
14.90000	261
14.90833	267
14.91667	275
14.92500	282
14.93333	291
14.94167	299
14.95000	308
14.95833	317
14.96667	326
14.97500	337
14.98333	347
14.99167	359
15.00000	371
15.00833	384
15.01667	397
15.02500	412
15.03333	428
15.04167	444
15.05000	462
15.05833	481
15.06667	501
15.07500	523
15.08333	546
15.09167	571
15.10000	597
15.10833	625
15.11667	656
15.12500	689
15.13333	724
15.14167	762
15.15000	804
15.15833	849
15.16667	898
15.17500	951
15.18333	1010
15.19167	1073
15.20000	1143
15.20833	1218
15.21667	1301
15.22500	1392
15.23333	1492
15.24167	1601
15.25000	1719
15.25833	1848
15.26667	1989
15.27500	2140
15.28333	2303
15.29167	2477
15.30000	2662
15.30833	2858
15.31667	3064
15.32500	3279
15.33333	3501
15.34167	3730
15.35000	3962
15.35833	4197
15.36667	4431
15.37500	4662
15.38333	4888
15.39167	5106
15.40000	5312
15.40833	5505
15.41667	5681
15.42500	5839
15.43333	5976
15.44167	6091
15.45000	6183
15.45833	6250
15.46667	6292
15.47500	6308
15.48333	6299
15.49167	6266
15.50000	6210
15.50833	6132
15.51667	6034
15.52500	5918
15.53333	5787
15.54167	5642
15.55000	5485
15.55833	5319
15.56667	5147
15.57500	4970
15.58333	4791
15.59167	4611
15.60000	4433
15.60833	4257
15.61667	4086
15.62500	3920
15.63333	3760
15.64167	3607
15.65000	3460
15.65833	3321
15.66667	3189
15.67500	3065
15.68333	2947
15.69167	2838
15.70000	2735
15.70833	2639
15.71667	2549
15.72500	2465
15.73333	2387
15.74167	2313
15.75000	2243
15.75833	2178
15.76667	2116
15.77500	2057
15.78333	2002
15.79167	1949
15.80000	1898
15.80833	1850
15.81667	1803
15.82500	1758
15.83333	1714
15.84167	1672
15.85000	1631
15.85833	1591
15.86667	1552
15.87500	1514
15.88333	1477
15.89167	1440
15.90000	1405
15.90833	1369
15.91667	1335
15.92500	1300
15.93333	1267
15.94167	1234
15.95000	1201
15.95833	1169
15.96667	1137
15.97500	1106
15.98333	1075
15.99167	1045
16.00000	1016
16.00833	987
16.01667	958
16.02500	930
16.03333	902
16.04167	875
16.05000	848
16.05833	822
16.06667	796
16.07500	771
16.08333	746
16.09167	722
16.10000	699
16.10833	676
16.11667	654
16.12500	632
16.13333	610
16.14167	589
16.15000	569
16.15833	549
16.16667	529
16.17500	510
16.18333	492
16.19167	475
16.20000	458
16.20833	441
16.21667	424
16.22500	408
16.23333	393
16.24167	378
16.25000	364
16.25833	350
16.26667	337
16.27500	324
16.28333	311
16.29167	299
16.30000	288
16.30833	277
16.31667	267
16.32500	256
16.33333	246
16.34167	237
16.35000	228
16.35833	219
16.36667	210
16.37500	202
16.38333	194
16.39167	187
16.40000	179
16.40833	173
16.41667	166
16.42500	160
16.43333	154
16.44167	148
16.45000	143
16.45833	137
16.46667	132
16.47500	127
16.48333	123
16.49167	118
16.50000	114
16.50833	111
16.51667	107
16.52500	103
16.53333	100
16.54167	97
16.55000	94
16.55833	91
16.56667	88
16.57500	86
16.58333	83
16.59167	81
16.60000	79
16.60833	76
16.61667	74
16.62500	72
16.63333	70
16.64167	68
16.65000	66
16.65833	65
16.66667	64
16.67500	62
16.68333	61
16.69167	59
16.70000	58
16.70833	56
16.71667	55
16.72500	54
16.73333	53
16.74167	52
16.75000	51
16.75833	50
16.76667	50
16.77500	49
16.78333	48
16.79167	48
16.80000	47
16.80833	47
16.81667	46
16.82500	46
16.83333	45
16.84167	45
16.85000	45
16.85833	45
16.86667	45
16.87500	44
16.88333	44
16.89167	44
16.90000	43
16.90833	43
16.91667	42
16.92500	42
16.93333	42
16.94167	41
16.95000	41
16.95833	40
16.96667	40
16.97500	40
16.98333	40
16.99167	40
17.00000	40
17.00833	40
17.01667	39
17.02500	39
17.03333	38
17.04167	38
17.05000	37
17.05833	36
17.06667	36
17.07500	36
17.08333	35
17.09167	35
17.10000	36
17.10833	36
17.11667	36
17.12500	36
17.13333	35
17.14167	35
17.15000	35
17.15833	35
17.16667	35
17.17500	34
17.18333	34
17.19167	34
17.20000	34
17.20833	34
17.21667	34
17.22500	34
17.23333	34
17.24167	33
17.25000	33
17.25833	32
17.26667	32
17.27500	32
17.28333	32
17.29167	32
17.30000	32
17.30833	32
17.31667	32
17.32500	31
17.33333	31
17.34167	31
17.35000	31
17.35833	31
17.36667	31
17.37500	31
17.38333	31
17.39167	31
17.40000	31
17.40833	31
17.41667	31
17.42500	31
17.43333	31
17.44167	31
17.45000	31
17.45833	32
17.46667	32
17.47500	32
17.48333	32
17.49167	32
17.50000	32
17.50833	31
17.51667	32
17.52500	32
17.53333	32
17.54167	31
17.55000	31
17.55833	31
17.56667	31
17.57500	32
17.58333	32
17.59167	32
17.60000	33
17.60833	33
17.61667	33
17.62500	33
17.63333	34
17.64167	35
17.65000	36
17.65833	36
17.66667	37
17.67500	38
17.68333	39
17.69167	40
17.70000	41
17.70833	42
17.71667	43
17.72500	45
17.73333	46
17.74167	48
17.75000	50
17.75833	53
17.76667	56
17.77500	59
17.78333	62
17.79167	66
17.80000	71
17.80833	76
17.81667	82
17.82500	88
17.83333	95
17.84167	102
17.85000	110
17.85833	119
17.86667	129
17.87500	139
17.88333	151
17.89167	163
17.90000	177
17.90833	192
17.91667	208
17.92500	227
17.93333	247
17.94167	268
17.95000	292
17.95833	319
17.96667	348
17.97500	380
17.98333	415
17.99167	453
18.00000	494
18.00833	539
18.01667	588
18.02500	641
18.03333	698
18.04167	760
18.05000	825
18.05833	895
18.06667	970
18.07500	1049
18.08333	1132
18.09167	1219
18.10000	1309
18.10833	1402
18.11667	1497
18.12500	1595
18.13333	1693
18.14167	1792
18.15000	1890
18.15833	1987
18.16667	2082
18.17500	2174
18.18333	2262
18.19167	2344
18.20000	2421
18.20833	2491
18.21667	2552
18.22500	2606
18.23333	2650
18.24167	2684
18.25000	2708
18.25833	2722
18.26667	2725
18.27500	2719
18.28333	2702
18.29167	2675
18.30000	2638
18.30833	2593
18.31667	2539
18.32500	2477
18.33333	2408
18.34167	2333
18.35000	2254
18.35833	2170
18.36667	2083
18.37500	1993
18.38333	1901
18.39167	1808
18.40000	1715
18.40833	1623
18.41667	1532
18.42500	1442
18.43333	1355
18.44167	1270
18.45000	1189
18.45833	1110
18.46667	1035
18.47500	964
18.48333	897
18.49167	833
18.50000	772
18.50833	716
18.51667	663
18.52500	614
18.53333	569
18.54167	526
18.55000	487
18.55833	450
18.56667	416
18.57500	385
18.58333	356
18.59167	329
18.60000	305
18.60833	282
18.61667	262
18.62500	242
18.63333	225
18.64167	209
18.65000	194
18.65833	180
18.66667	167
18.67500	155
18.68333	144
18.69167	134
18.70000	126
18.70833	117
18.71667	110
18.72500	103
18.73333	96
18.74167	90
18.75000	85
18.75833	80
18.76667	74
18.77500	70
18.78333	66
18.79167	62
18.80000	59
18.80833	55
18.81667	52
18.82500	50
18.83333	47
18.84167	45
18.85000	43
18.85833	41
18.86667	39
18.87500	37
18.88333	36
18.89167	34
18.90000	33
18.90833	32
18.91667	31
18.92500	30
18.93333	29
18.94167	28
18.95000	28
18.95833	27
18.96667	26
18.97500	26
18.98333	26
18.99167	25
19.00000	25
19.00833	25
19.01667	24
19.02500	23
19.03333	23
19.04167	22
19.05000	22
19.05833	22
19.06667	21
19.07500	21
19.08333	21
19.09167	21
19.10000	21
19.10833	21
19.11667	21
19.12500	20
19.13333	20
19.14167	20
19.15000	19
19.15833	19
19.16667	19
19.17500	19
19.18333	19
19.19167	19
19.20000	19
19.20833	19
19.21667	19
19.22500	19
19.23333	19
19.24167	19
19.25000	19
19.25833	19
19.26667	20
19.27500	20
19.28333	19
19.29167	19
19.30000	18
19.30833	18
19.31667	18
19.32500	18
19.33333	18
19.34167	18
19.35000	17
19.35833	17
19.36667	17
19.37500	17
19.38333	17
19.39167	17
19.40000	17
19.40833	17
19.41667	17
19.42500	17
19.43333	17
19.44167	17
19.45000	17
19.45833	17
19.46667	17
19.47500	17
19.48333	17
19.49167	17
19.50000	17
19.50833	18
19.51667	18
19.52500	18
19.53333	18
19.54167	18
19.55000	18
19.55833	18
19.56667	18
19.57500	18
19.58333	17
19.59167	17
19.60000	17
19.60833	18
19.61667	18
19.62500	18
19.63333	19
19.64167	19
19.65000	19
19.65833	20
19.66667	20
19.67500	20
19.68333	20
19.69167	20
19.70000	20
19.70833	19
19.71667	20
19.72500	20
19.73333	20
19.74167	20
19.75000	20
19.75833	20
19.76667	19
19.77500	19
19.78333	19
19.79167	18
19.80000	18
19.80833	18
19.81667	18
19.82500	18
19.83333	18
19.84167	18
19.85000	18
19.85833	18
19.86667	18
19.87500	18
19.88333	18
19.89167	17
19.90000	17
19.90833	17
19.91667	17
19.92500	17
19.93333	16
19.94167	16
19.95000	16
19.95833	16
19.96667	16
19.97500	15
19.98333	15
19.99167	15
20.00000	15
20.00833	15
20.01667	14
20.02500	14
20.03333	13
20.04167	13
20.05000	13
20.05833	13
20.06667	12
20.07500	12
20.08333	12
20.09167	12
20.10000	12
20.10833	12
20.11667	12
20.12500	12
20.13333	12
20.14167	12
20.15000	12
20.15833	12
20.16667	12
20.17500	12
20.18333	12
20.19167	12
20.20000	12
20.20833	12
20.21667	12
20.22500	12
20.23333	12
20.24167	12
20.25000	12
20.25833	12
20.26667	11
20.27500	12
20.28333	12
20.29167	12
20.30000	12
20.30833	12
20.31667	12
20.32500	12
20.33333	12
20.34167	12
20.35000	12
20.35833	12
20.36667	12
20.37500	12
20.38333	11
20.39167	11
20.40000	11
20.40833	11
20.41667	12
20.42500	12
20.43333	12
20.44167	12
20.45000	13
20.45833	13
20.46667	13
20.47500	13
20.48333	12
20.49167	12
20.50000	12
20.50833	12
20.51667	12
20.52500	12
20.53333	12
20.54167	12
20.55000	11
20.55833	11
20.56667	11
20.57500	11
20.58333	12
20.59167	12
20.60000	12
20.60833	12
20.61667	12
20.62500	12
20.63333	12
20.64167	12
20.65000	12
20.65833	12
20.66667	12
20.67500	12
20.68333	12
20.69167	12
20.70000	12
20.70833	11
20.71667	11
20.72500	11
20.73333	11
20.74167	11
20.75000	11
20.75833	11
20.76667	11
20.77500	11
20.78333	11
20.79167	10
20.80000	10
20.80833	10
20.81667	10
20.82500	10
20.83333	10
20.84167	10
20.85000	10
20.85833	9
20.86667	9
20.87500	10
20.88333	10
20.89167	10
20.90000	9
20.90833	9
20.91667	10
20.92500	10
20.93333	9
20.94167	9
20.95000	9
20.95833	9
20.96667	9
20.97500	9
20.98333	9
20.99167	9
21.00000	8
21.00833	8
21.01667	8
21.02500	8
21.03333	9
21.04167	9
21.05000	9
21.05833	9
21.06667	8
21.07500	8
21.08333	8
21.09167	8
21.10000	8
21.10833	8
21.11667	8
21.12500	8
21.13333	8
21.14167	9
21.15000	9
21.15833	10
21.16667	10
21.17500	10
21.18333	10
21.19167	10
21.20000	10
21.20833	10
21.21667	10
21.22500	11
21.23333	11
21.24167	11
21.25000	11
21.25833	11
21.26667	11
21.27500	11
21.28333	11
21.29167	12
21.30000	12
21.30833	12
21.31667	12
21.32500	12
21.33333	12
21.34167	12
21.35000	12
21.35833	12
21.36667	12
21.37500	12
21.38333	12
21.39167	12
21.40000	11
21.40833	11
21.41667	11
21.42500	11
21.43333	12
21.44167	12
21.45000	12
21.45833	12
21.46667	12
21.47500	12
21.48333	12
21.49167	11
21.50000	11
21.50833	11
21.51667	11
21.52500	12
21.53333	12
21.54167	12
21.55000	12
21.55833	12
21.56667	12
21.57500	12
21.58333	12
21.59167	12
21.60000	12
21.60833	12
21.61667	12
21.62500	13
21.63333	13
21.64167	13
21.65000	13
21.65833	13
21.66667	13
21.67500	13
21.68333	13
21.69167	13
21.70000	13
21.70833	13
21.71667	13
21.72500	13
21.73333	13
21.74167	13
21.75000	13
21.75833	13
21.76667	12
21.77500	12
21.78333	12
21.79167	13
21.80000	13
21.80833	13
21.81667	13
21.82500	13
21.83333	13
21.84167	13
21.85000	12
21.85833	12
21.86667	12
21.87500	12
21.88333	12
21.89167	12
21.90000	12
21.90833	12
21.91667	13
21.92500	12
21.93333	12
21.94167	12
21.95000	12
21.95833	12
21.96667	12
21.97500	12
21.98333	12
21.99167	11
22.00000	11
22.00833	10
22.01667	10
22.02500	10
22.03333	10
22.04167	10
22.05000	10
22.05833	10
22.06667	10
22.07500	10
22.08333	10
22.09167	9
22.10000	9
22.10833	9
22.11667	9
22.12500	9
22.13333	9
22.14167	9
22.15000	9
22.15833	9
22.16667	9
22.17500	9
22.18333	9
22.19167	9
22.20000	9
22.20833	9
22.21667	8
22.22500	8
22.23333	8
22.24167	7
22.25000	7
22.25833	7
22.26667	6
22.27500	5
22.28333	5
22.29167	4
22.30000	3
22.30833	3
22.31667	2
22.32500	1
22.33333	0
22.34167	-1
22.35000	-2
22.35833	-3
22.36667	-5
22.37500	-6
22.38333	-8
22.39167	-10
22.40000	-12
22.40833	-14
22.41667	-16
22.42500	-18
22.43333	-21
22.44167	-23
22.45000	-26
22.45833	-28
22.46667	-31
22.47500	-33
22.48333	-37
22.49167	-39
22.50000	-42
22.50833	-45
22.51667	-48
22.52500	-52
22.53333	-55
22.54167	-59
22.55000	-62
22.55833	-66
22.56667	-69
22.57500	-72
22.58333	-76
22.59167	-79
22.60000	-82
22.60833	-86
22.61667	-89
22.62500	-91
22.63333	-94
22.64167	-96
22.65000	-99
22.65833	-101
22.66667	-103
22.67500	-104
22.68333	-106
22.69167	-108
22.70000	-109
22.70833	-110
22.71667	-111
22.72500	-111
22.73333	-110
22.74167	-110
22.75000	-109
22.75833	-108
22.76667	-107
22.77500	-107
22.78333	-106
22.79167	-104
22.80000	-103
22.80833	-102
22.81667	-100
22.82500	-98
22.83333	-95
22.84167	-93
22.85000	-89
22.85833	-87
22.86667	-84
22.87500	-81
22.88333	-78
22.89167	-74
22.90000	-71
22.90833	-68
22.91667	-65
22.92500	-62
22.93333	-59
22.94167	-56
22.95000	-53
22.95833	-49
22.96667	-46
22.97500	-43
22.98333	-40
22.99167	-37
23.00000	-34
23.00833	-31
23.01667	-28
23.02500	-25
23.03333	-23
23.04167	-20
23.05000	-18
23.05833	-15
23.06667	-13
23.07500	-12
23.08333	-10
23.09167	-9
23.10000	-7
23.10833	-6
23.11667	-6
23.12500	-5
23.13333	-3
23.14167	-2
23.15000	-1
23.15833	0
23.16667	2
23.17500	3
23.18333	4
23.19167	5
23.20000	6
23.20833	7
23.21667	7
23.22500	8
23.23333	8
23.24167	8
23.25000	9
23.25833	9
23.26667	10
23.27500	10
23.28333	11
23.29167	11
23.30000	11
23.30833	12
23.31667	12
23.32500	12
23.33333	12
23.34167	12
23.35000	12
23.35833	12
23.36667	12
23.37500	12
23.38333	12
23.39167	12
23.40000	12
23.40833	12
23.41667	12
23.42500	12
23.43333	12
23.44167	12
23.45000	12
23.45833	12
23.46667	12
23.47500	12
23.48333	12
23.49167	12
23.50000	12
23.50833	12
23.51667	12
23.52500	11
23.53333	11
23.54167	11
23.55000	12
23.55833	12
23.56667	12
23.57500	12
23.58333	12
23.59167	12
23.60000	12
23.60833	12
23.61667	12
23.62500	11
23.63333	12
23.64167	12
23.65000	12
23.65833	12
23.66667	13
23.67500	13
23.68333	13
23.69167	13
23.70000	13
23.70833	13
23.71667	13
23.72500	13
23.73333	13
23.74167	13
23.75000	13
23.75833	13
23.76667	12
23.77500	12
23.78333	12
23.79167	12
23.80000	11
23.80833	11
23.81667	12
23.82500	12
23.83333	12
23.84167	12
23.85000	12
23.85833	12
23.86667	12
23.87500	12
23.88333	12
23.89167	12
23.90000	12
23.90833	12
23.91667	12
23.92500	12
23.93333	12
23.94167	11
23.95000	11
23.95833	10
23.96667	9
23.97500	9
23.98333	8
23.99167	7
24.00000	6
24.00833	5
24.01667	5
24.02500	4
24.03333	4
24.04167	3
24.05000	2
24.05833	1
24.06667	0
24.07500	-0
24.08333	-1
24.09167	-3
24.10000	-4
24.10833	-5
24.11667	-5
24.12500	-6
24.13333	-7
24.14167	-9
24.15000	-10
24.15833	-11
24.16667	-13
24.17500	-14
24.18333	-15
24.19167	-17
24.20000	-18
24.20833	-20
24.21667	-21
24.22500	-22
24.23333	-23
24.24167	-24
24.25000	-25
24.25833	-26
24.26667	-27
24.27500	-28
24.28333	-29
24.29167	-30
24.30000	-31
24.30833	-32
24.31667	-33
24.32500	-33
24.33333	-34
24.34167	-34
24.35000	-35
24.35833	-35
24.36667	-36
24.37500	-37
24.38333	-38
24.39167	-38
24.40000	-38
24.40833	-38
24.41667	-38
24.42500	-38
24.43333	-38
24.44167	-37
24.45000	-37
24.45833	-36
24.46667	-36
24.47500	-36
24.48333	-36
24.49167	-35
24.50000	-34
24.50833	-34
24.51667	-32
24.52500	-31
24.53333	-30
24.54167	-29
24.55000	-28
24.55833	-27
24.56667	-26
24.57500	-25
24.58333	-24
24.59167	-23
24.60000	-22
24.60833	-22
24.61667	-21
24.62500	-19
24.63333	-18
24.64167	-17
24.65000	-16
24.65833	-15
24.66667	-14
24.67500	-13
24.68333	-12
24.69167	-11
24.70000	-10
24.70833	-9
24.71667	-9
24.72500	-8
24.73333	-8
24.74167	-7
24.75000	-6
24.75833	-5
24.76667	-5
24.77500	-4
24.78333	-4
24.79167	-3
24.80000	-2
24.80833	-2
24.81667	-2
24.82500	-2
24.83333	-2
24.84167	-1
24.85000	-1
24.85833	-0
24.86667	-0
24.87500	0
24.88333	1
24.89167	1
24.90000	1
24.90833	1
24.91667	2
24.92500	2
24.93333	3
24.94167	3
24.95000	3
24.95833	3
24.96667	3
24.97500	3
24.98333	3
24.99167	3
25.00000	3
25.00833	3
25.01667	3
25.02500	3
25.03333	3
25.04167	3
25.05000	3
25.05833	3
25.06667	3
25.07500	3
25.08333	3
25.09167	3
25.10000	3
25.10833	3
25.11667	3
25.12500	3
25.13333	4
25.14167	5
25.15000	5
25.15833	6
25.16667	6
25.17500	6
25.18333	6
25.19167	7
25.20000	7
25.20833	7
25.21667	7
25.22500	7
25.23333	8
25.24167	8
25.25000	9
25.25833	10
25.26667	11
25.27500	11
25.28333	12
25.29167	12
25.30000	13
25.30833	15
25.31667	16
25.32500	17
25.33333	18
25.34167	19
25.35000	21
25.35833	22
25.36667	24
25.37500	26
25.38333	27
25.39167	29
25.40000	32
25.40833	34
25.41667	37
25.42500	40
25.43333	42
25.44167	46
25.45000	50
25.45833	54
25.46667	58
25.47500	63
25.48333	68
25.49167	73
25.50000	79
25.50833	85
25.51667	91
25.52500	98
25.53333	105
25.54167	113
25.55000	122
25.55833	131
25.56667	141
25.57500	151
25.58333	162
25.59167	174
25.60000	187
25.60833	201
25.61667	216
25.62500	233
25.63333	250
25.64167	268
25.65000	287
25.65833	307
25.66667	328
25.67500	351
25.68333	376
25.69167	402
25.70000	430
25.70833	460
25.71667	491
25.72500	525
25.73333	561
25.74167	599
25.75000	639
25.75833	682
25.76667	728
25.77500	777
25.78333	828
25.79167	883
25.80000	942
25.80833	1004
25.81667	1070
25.82500	1140
25.83333	1214
25.84167	1293
25.85000	1377
25.85833	1466
25.86667	1559
25.87500	1659
25.88333	1765
25.89167	1876
25.90000	1994
25.90833	2117
25.91667	2247
25.92500	2384
25.93333	2527
25.94167	2678
25.95000	2835
25.95833	3000
25.96667	3171
25.97500	3349
25.98333	3533
25.99167	3725
26.00000	3922
26.00833	4127
26.01667	4336
26.02500	4551
26.03333	4771
26.04167	4994
26.05000	5221
26.05833	5450
26.06667	5682
26.07500	5914
26.08333	6146
26.09167	6377
26.10000	6606
26.10833	6832
26.11667	7054
26.12500	7270
26.13333	7479
26.14167	7681
26.15000	7875
26.15833	8059
26.16667	8232
26.17500	8393
26.18333	8541
26.19167	8676
26.20000	8796
26.20833	8901
26.21667	8991
26.22500	9064
26.23333	9120
26.24167	9159
26.25000	9181
26.25833	9185
26.26667	9173
26.27500	9143
26.28333	9096
26.29167	9032
26.30000	8953
26.30833	8858
26.31667	8747
26.32500	8623
26.33333	8486
26.34167	8335
26.35000	8173
26.35833	8000
26.36667	7816
26.37500	7624
26.38333	7425
26.39167	7218
26.40000	7006
26.40833	6788
26.41667	6567
26.42500	6343
26.43333	6117
26.44167	5891
26.45000	5664
26.45833	5437
26.46667	5212
26.47500	4990
26.48333	4771
26.49167	4555
26.50000	4343
26.50833	4136
26.51667	3934
26.52500	3737
26.53333	3546
26.54167	3360
26.55000	3180
26.55833	3007
26.56667	2840
26.57500	2680
26.58333	2527
26.59167	2381
26.60000	2241
26.60833	2107
26.61667	1980
26.62500	1860
26.63333	1745
26.64167	1637
26.65000	1535
26.65833	1438
26.66667	1346
26.67500	1260
26.68333	1179
26.69167	1102
26.70000	1030
26.70833	963
26.71667	900
26.72500	840
26.73333	784
26.74167	732
26.75000	684
26.75833	638
26.76667	596
26.77500	557
26.78333	520
26.79167	485
26.80000	453
26.80833	423
26.81667	395
26.82500	369
26.83333	344
26.84167	322
26.85000	301
26.85833	282
26.86667	264
26.87500	248
26.88333	232
26.89167	218
26.90000	204
26.90833	191
26.91667	179
26.92500	169
26.93333	159
26.94167	150
26.95000	141
26.95833	133
26.96667	126
26.97500	119
26.98333	112
26.99167	106
27.00000	101
27.00833	96
27.01667	91
27.02500	86
27.03333	81
27.04167	77
27.05000	74
27.05833	70
27.06667	67
27.07500	64
27.08333	62
27.09167	59
27.10000	57
27.10833	55
27.11667	53
27.12500	51
27.13333	49
27.14167	47
27.15000	46
27.15833	44
27.16667	43
27.17500	42
27.18333	40
27.19167	39
27.20000	38
27.20833	37
27.21667	36
27.22500	35
27.23333	34
27.24167	34
27.25000	33
27.25833	33
27.26667	33
27.27500	32
27.28333	32
27.29167	32
27.30000	31
27.30833	31
27.31667	30
27.32500	30
27.33333	30
27.34167	30
27.35000	30
27.35833	29
27.36667	29
27.37500	29
27.38333	29
27.39167	28
27.40000	28
27.40833	27
27.41667	27
27.42500	26
27.43333	26
27.44167	26
27.45000	26
27.45833	25
27.46667	25
27.47500	25
27.48333	25
27.49167	24
27.50000	24
27.50833	24
27.51667	23
27.52500	23
27.53333	24
27.54167	23
27.55000	23
27.55833	23
27.56667	23
27.57500	23
27.58333	23
27.59167	23
27.60000	23
27.60833	23
27.61667	23
27.62500	23
27.63333	23
27.64167	23
27.65000	22
27.65833	22
27.66667	22
27.67500	21
27.68333	21
27.69167	21
27.70000	21
27.70833	21
27.71667	21
27.72500	21
27.73333	21
27.74167	21
27.75000	22
27.75833	22
27.76667	22
27.77500	22
27.78333	22
27.79167	23
27.80000	23
27.80833	23
27.81667	22
27.82500	22
27.83333	22
27.84167	22
27.85000	22
27.85833	22
27.86667	21
27.87500	21
27.88333	22
27.89167	21
27.90000	21
27.90833	22
27.91667	22
27.92500	22
27.93333	22
27.94167	22
27.95000	22
27.95833	21
27.96667	21
27.97500	20
27.98333	20
27.99167	20
28.00000	20

